Nombre,Rodrigo Parafita bestilleiro
Fecha de nacimiento,"22 jun 1998"
Fecha de registro,2024-09-22 23:35:52 +0200
Clasificación,Ritmo sinusal
Síntomas,
Versión del software,1.90
Dispositivo,"Watch7,5"
Frecuencia de muestreo,512 hercios


Derivación,Derivación I
Unidad,µV

53,831
49,678
45,636
41,717
37,933
34,293
30,808
27,484
24,328
21,346
18,541
15,917
13,473
11,21
9,127
7,222
5,491
3,93
2,536
1,302
0,223
-0,708
-1,497
-2,152
-2,681
-3,091
-3,39
-3,587
-3,689
-3,706
-3,645
-3,515
-3,325
-3,082
-2,795
-2,473
-2,122
-1,751
-1,367
-0,976
-0,585
-0,2
0,175
0,535
0,876
1,194
1,488
1,754
1,992
2,198
2,372
2,513
2,619
2,692
2,729
2,731
2,698
2,63
2,527
2,39
2,218
2,013
1,775
1,504
1,203
0,873
0,516
0,134
-0,272
-0,697
-1,139
-1,596
-2,062
-2,537
-3,016
-3,496
-3,974
-4,447
-4,913
-5,368
-5,809
-6,233
-6,638
-7,02
-7,376
-7,704
-7,999
-8,257
-8,476
-8,652
-8,781
-8,859
-8,884
-8,85
-8,756
-8,598
-8,372
-8,077
-7,711
-7,271
-6,759
-6,172
-5,513
-4,784
-3,986
-3,123
-2,197
-1,213
-0,174
0,914
2,046
3,216
4,418
5,644
6,886
8,135
9,382
10,614
11,82
12,988
14,104
15,152
16,114
16,974
17,712
18,314
18,766
19,053
19,16
19,074
18,783
18,278
17,552
16,597
15,404
13,961
12,264
10,313
8,119
5,693
3,042
0,165
-2,944
-6,288
-9,864
-13,667
-17,696
-21,954
-26,434
-31,115
-35,952
-40,88
-45,846
-50,815
-55,766
-60,698
-65,578
-70,33
-74,868
-79,093
-82,94
-86,4
-89,421
-91,912
-93,861
-95,317
-96,494
-97,787
-99,426
-101,435
-103,811
-106,479
-109,369
-112,553
-115,759
-118,319
-119,847
-120,138
-119,244
-117,642
-115,589
-112,987
-110,205
-108,024
-107,128
-108,421
-112,309
-118,507
-127,011
-137,896
-150,738
-164,707
-178,395
-189,504
-195,875
-195,545
-186,203
-165,784
-132,342
-84,412
-21,82
54,445
142,557
239,396
341,187
443,048
537,88
620,069
685,569
731,957
761,708
774,897
767,047
733,522
666,018
561,857
431,343
289,772
158,278
55,111
-15,747
-58,7
-84,769
-105,155
-123,017
-136,415
-141,01
-134,681
-119,873
-101,184
-83,832
-71,045
-63,787
-62,489
-66,934
-76,258
-89,292
-104,318
-119,202
-132,278
-142,476
-148,881
-151,124
-149,387
-144,177
-136,442
-127,425
-118,229
-109,588
-102,041
-95,856
-91,083
-87,696
-85,511
-84,191
-83,374
-82,843
-82,512
-82,354
-82,39
-82,592
-82,898
-83,293
-83,792
-84,387
-85,06
-85,758
-86,399
-86,921
-87,275
-87,421
-87,332
-86,966
-86,261
-85,179
-83,7
-81,825
-79,581
-76,987
-74,051
-70,79
-67,227
-63,395
-59,337
-55,1
-50,733
-46,277
-41,764
-37,232
-32,717
-28,25
-23,849
-19,521
-15,257
-11,051
-6,899
-2,792
1,281
5,339
9,404
13,5
17,652
21,883
26,206
30,634
35,176
39,838
44,622
49,522
54,528
59,629
64,815
70,074
75,395
80,763
86,159
91,566
96,963
102,333
107,656
112,915
118,091
123,167
128,126
132,949
137,623
142,13
146,452
150,57
154,466
158,121
161,519
164,641
167,471
169,992
172,191
174,054
175,569
176,726
177,515
177,929
177,961
177,605
176,861
175,726
174,201
172,289
169,993
167,321
164,278
160,873
157,117
153,02
148,595
143,856
138,817
133,494
127,905
122,067
115,999
109,722
103,256
96,623
89,845
82,943
75,942
68,862
61,729
54,563
47,388
40,225
33,098
26,026
19,031
12,132
5,347
-1,304
-7,807
-14,144
-20,302
-26,268
-32,028
-37,572
-42,89
-47,974
-52,814
-57,406
-61,743
-65,822
-69,639
-73,193
-76,483
-79,51
-82,276
-84,782
-87,032
-89,031
-90,784
-92,298
-93,578
-94,632
-95,469
-96,097
-96,526
-96,763
-96,819
-96,704
-96,428
-96
-95,43
-94,727
-93,902
-92,964
-91,922
-90,785
-89,563
-88,264
-86,897
-85,471
-83,993
-82,472
-80,915
-79,329
-77,721
-76,098
-74,466
-72,83
-71,197
-69,571
-67,959
-66,363
-64,79
-63,242
-61,724
-60,239
-58,791
-57,382
-56,016
-54,694
-53,42
-52,197
-51,025
-49,908
-48,848
-47,847
-46,905
-46,025
-45,209
-44,456
-43,768
-43,145
-42,588
-42,098
-41,674
-41,316
-41,024
-40,797
-40,636
-40,538
-40,502
-40,528
-40,613
-40,755
-40,951
-41,201
-41,501
-41,848
-42,24
-42,674
-43,146
-43,654
-44,194
-44,762
-45,354
-45,967
-46,598
-47,241
-47,893
-48,551
-49,211
-49,869
-50,522
-51,167
-51,799
-52,417
-53,016
-53,594
-54,149
-54,678
-55,178
-55,649
-56,089
-56,497
-56,872
-57,213
-57,522
-57,798
-58,041
-58,253
-58,435
-58,587
-58,711
-58,809
-58,883
-58,934
-58,966
-58,98
-58,978
-58,964
-58,939
-58,905
-58,866
-58,823
-58,777
-58,733
-58,69
-58,651
-58,618
-58,593
-58,576
-58,569
-58,572
-58,587
-58,612
-58,647
-58,691
-58,743
-58,8
-58,862
-58,925
-58,985
-59,041
-59,088
-59,124
-59,143
-59,142
-59,117
-59,064
-58,977
-58,853
-58,686
-58,472
-58,207
-57,886
-57,506
-57,061
-56,549
-55,966
-55,308
-54,573
-53,756
-52,856
-51,871
-50,798
-49,637
-48,387
-47,048
-45,622
-44,11
-42,514
-40,839
-39,088
-37,265
-35,378
-33,431
-31,431
-29,387
-27,306
-25,197
-23,069
-20,933
-18,8
-16,683
-14,596
-12,554
-10,572
-8,665
-6,848
-5,138
-3,549
-2,093
-0,781
0,374
1,361
2,168
2,781
3,19
3,386
3,361
3,106
2,617
1,891
0,932
-0,255
-1,665
-3,298
-5,164
-7,269
-9,614
-12,2
-15,019
-18,06
-21,309
-24,739
-28,305
-31,96
-35,652
-39,332
-42,965
-46,508
-49,912
-53,118
-56,045
-58,623
-60,792
-62,5
-63,714
-64,416
-64,599
-64,298
-63,584
-62,542
-61,282
-59,916
-58,548
-57,316
-56,349
-55,812
-55,943
-56,906
-58,785
-61,545
-64,92
-68,576
-72,184
-75,27
-77,261
-77,72
-76,35
-73,294
-69,361
-65,45
-62,487
-61,457
-63,052
-67,694
-75,418
-85,222
-94,891
-101,723
-102,532
-93,96
-73,286
-38,105
13,502
82,01
166,311
264,194
370,925
479,771
584,528
678,711
759,337
827,706
883,632
925,912
946,862
932,838
874,215
766,464
619,563
456,368
300,828
176,469
92,339
42,802
17,089
-0,849
-19,38
-37,775
-53,071
-59,76
-56,646
-47,433
-36,259
-26,821
-20,799
-18,145
-18,509
-21,621
-27,098
-34,145
-41,665
-48,896
-55,225
-60,029
-62,988
-63,728
-62,099
-58,467
-53,369
-47,288
-40,777
-34,435
-28,638
-23,73
-19,932
-17,206
-15,461
-14,552
-14,228
-14,194
-14,257
-14,299
-14,243
-14,079
-13,799
-13,389
-12,878
-12,323
-11,761
-11,195
-10,608
-9,949
-9,163
-8,235
-7,158
-5,924
-4,524
-2,923
-1,096
0,954
3,223
5,71
8,414
11,348
14,519
17,905
21,48
25,206
29,026
32,908
36,829
40,764
44,694
48,593
52,441
56,234
59,983
63,694
67,373
71,025
74,652
78,273
81,912
85,595
89,354
93,213
97,184
101,285
105,523
109,908
114,442
119,122
123,936
128,872
133,92
139,07
144,312
149,628
155
160,408
165,832
171,25
176,643
181,988
187,265
192,453
197,531
202,479
207,277
211,904
216,339
220,56
224,544
228,268
231,713
234,856
237,676
240,156
242,275
244,02
245,374
246,326
246,863
246,977
246,66
245,906
244,712
243,076
240,998
238,481
235,528
232,144
228,339
224,119
219,496
214,483
209,093
203,342
197,247
190,825
184,098
177,085
169,808
162,292
154,56
146,637
138,55
130,323
121,984
113,56
105,077
96,561
88,038
79,534
71,073
62,679
54,374
46,18
38,119
30,208
22,467
14,914
7,563
0,43
-6,472
-13,132
-19,539
-25,684
-31,56
-37,16
-42,481
-47,519
-52,273
-56,742
-60,928
-64,834
-68,464
-71,822
-74,917
-77,755
-80,345
-82,697
-84,82
-86,727
-88,427
-89,933
-91,257
-92,41
-93,405
-94,253
-94,967
-95,558
-96,039
-96,421
-96,715
-96,932
-97,082
-97,176
-97,224
-97,235
-97,217
-97,18
-97,129
-97,073
-97,019
-96,971
-96,934
-96,915
-96,915
-96,938
-96,986
-97,062
-97,165
-97,297
-97,458
-97,647
-97,864
-98,108
-98,377
-98,67
-98,987
-99,324
-99,68
-100,054
-100,444
-100,847
-101,261
-101,685
-102,116
-102,553
-102,993
-103,435
-103,876
-104,315
-104,75
-105,18
-105,602
-106,017
-106,422
-106,816
-107,199
-107,571
-107,931
-108,279
-108,614
-108,939
-109,252
-109,555
-109,848
-110,131
-110,406
-110,673
-110,933
-111,186
-111,433
-111,674
-111,911
-112,143
-112,371
-112,595
-112,816
-113,034
-113,249
-113,46
-113,669
-113,873
-114,074
-114,271
-114,464
-114,651
-114,832
-115,007
-115,175
-115,334
-115,483
-115,622
-115,749
-115,863
-115,962
-116,046
-116,112
-116,161
-116,192
-116,202
-116,192
-116,161
-116,109
-116,035
-115,939
-115,821
-115,682
-115,521
-115,339
-115,138
-114,917
-114,679
-114,423
-114,152
-113,868
-113,57
-113,262
-112,945
-112,622
-112,292
-111,96
-111,626
-111,293
-110,963
-110,636
-110,315
-110
-109,694
-109,396
-109,108
-108,829
-108,56
-108,3
-108,048
-107,804
-107,565
-107,33
-107,096
-106,86
-106,621
-106,373
-106,114
-105,839
-105,545
-105,228
-104,882
-104,503
-104,086
-103,626
-103,118
-102,557
-101,936
-101,252
-100,498
-99,671
-98,765
-97,776
-96,7
-95,535
-94,277
-92,923
-91,472
-89,922
-88,272
-86,523
-84,675
-82,729
-80,688
-78,556
-76,337
-74,035
-71,656
-69,207
-66,694
-64,126
-61,51
-58,856
-56,174
-53,475
-50,769
-48,068
-45,388
-42,743
-40,149
-37,622
-35,178
-32,834
-30,609
-28,519
-26,581
-24,809
-23,216
-21,816
-20,623
-19,649
-18,908
-18,411
-18,166
-18,181
-18,464
-19,021
-19,854
-20,962
-22,336
-23,97
-25,86
-28,01
-30,424
-33,099
-36,03
-39,205
-42,608
-46,219
-50,011
-53,939
-57,95
-61,99
-66,004
-69,944
-73,777
-77,461
-80,949
-84,18
-87,072
-89,558
-91,587
-93,119
-94,147
-94,692
-94,752
-94,364
-93,673
-92,815
-91,958
-91,282
-90,808
-90,541
-90,633
-91,275
-92,532
-94,443
-96,862
-99,444
-102,077
-104,657
-106,834
-108,149
-108,188
-106,595
-103,38
-99,095
-94,296
-89,524
-85,518
-82,995
-82,535
-84,57
-88,936
-94,43
-99,092
-100,588
-96,196
-83,134
-58,61
-19,94
34,76
106,19
192,416
290,241
396,805
507,369
618,592
726,352
820,811
894,03
937,721
945,293
921,416
870,873
798,489
708,547
596,473
463,136
316,283
170,443
48,433
-36,461
-80,706
-92,076
-87,484
-76,749
-67,308
-61,139
-55,586
-53,288
-53,43
-55,268
-59,428
-62,925
-66,416
-70,732
-74,867
-78,997
-81,449
-80,903
-77,857
-72,791
-66,636
-60,408
-54,571
-49,596
-46,006
-43,981
-43,488
-44,376
-46,37
-49,235
-52,787
-56,814
-61,077
-65,374
-69,525
-73,371
-76,777
-79,602
-81,739
-83,13
-83,747
-83,603
-82,73
-81,173
-78,993
-76,268
-73,069
-69,472
-65,55
-61,373
-57,017
-52,563
-48,083
-43,648
-39,307
-35,09
-31,016
-27,091
-23,31
-19,665
-16,139
-12,711
-9,362
-6,08
-2,852
0,334
3,491
6,636
9,785
12,952
16,152
19,394
22,691
26,049
29,477
32,981
36,565
40,233
43,989
47,84
51,791
55,847
60,014
64,292
68,685
73,193
77,814
82,545
87,381
92,315
97,338
102,441
107,612
112,84
118,111
123,41
128,72
134,026
139,309
144,551
149,732
154,832
159,829
164,703
169,432
173,995
178,369
182,534
186,467
190,149
193,558
196,676
199,483
201,961
204,093
205,863
207,256
208,261
208,864
209,057
208,832
208,183
207,107
205,6
203,664
201,299
198,509
195,3
191,678
187,654
183,236
178,438
173,274
167,76
161,913
155,752
149,296
142,567
135,586
128,378
120,966
113,375
105,63
97,756
89,781
81,73
73,63
65,507
57,388
49,297
41,261
33,304
25,449
17,719
10,135
2,718
-4,513
-11,539
-18,346
-24,916
-31,238
-37,298
-43,086
-48,593
-53,812
-58,738
-63,366
-67,694
-71,721
-75,448
-78,875
-82,008
-84,849
-87,406
-89,684
-91,692
-93,439
-94,934
-96,189
-97,214
-98,023
-98,627
-99,039
-99,273
-99,341
-99,257
-99,034
-98,686
-98,225
-97,665
-97,017
-96,295
-95,509
-94,67
-93,79
-92,877
-91,942
-90,991
-90,033
-89,075
-88,123
-87,182
-86,257
-85,352
-84,471
-83,617
-82,791
-81,995
-81,231
-80,498
-79,798
-79,128
-78,489
-77,88
-77,298
-76,744
-76,214
-75,706
-75,22
-74,753
-74,302
-73,865
-73,44
-73,025
-72,617
-72,215
-71,817
-71,422
-71,028
-70,634
-70,241
-69,846
-69,451
-69,055
-68,659
-68,263
-67,867
-67,473
-67,082
-66,695
-66,313
-65,938
-65,571
-65,213
-64,867
-64,533
-64,213
-63,908
-63,618
-63,345
-63,09
-62,852
-62,633
-62,433
-62,251
-62,089
-61,946
-61,822
-61,715
-61,625
-61,552
-61,493
-61,447
-61,412
-61,386
-61,367
-61,353
-61,34
-61,326
-61,308
-61,283
-61,249
-61,202
-61,139
-61,057
-60,955
-60,828
-60,676
-60,496
-60,287
-60,048
-59,778
-59,478
-59,146
-58,783
-58,39
-57,968
-57,518
-57,043
-56,543
-56,021
-55,48
-54,922
-54,349
-53,766
-53,176
-52,581
-51,986
-51,394
-50,809
-50,235
-49,677
-49,138
-48,622
-48,133
-47,675
-47,252
-46,867
-46,523
-46,223
-45,968
-45,761
-45,601
-45,489
-45,426
-45,408
-45,436
-45,505
-45,614
-45,759
-45,935
-46,138
-46,364
-46,607
-46,862
-47,124
-47,386
-47,642
-47,886
-48,112
-48,314
-48,483
-48,615
-48,701
-48,736
-48,712
-48,624
-48,465
-48,228
-47,908
-47,5
-46,998
-46,399
-45,699
-44,894
-43,984
-42,967
-41,843
-40,615
-39,285
-37,856
-36,333
-34,722
-33,029
-31,262
-29,428
-27,536
-25,597
-23,619
-21,614
-19,594
-17,571
-15,561
-13,579
-11,642
-9,766
-7,969
-6,268
-4,683
-3,228
-1,92
-0,773
0,199
0,981
1,557
1,913
2,036
1,916
1,541
0,905
0,001
-1,173
-2,612
-4,312
-6,268
-8,478
-10,951
-13,691
-16,698
-19,968
-23,493
-27,26
-31,252
-35,442
-39,782
-44,224
-48,715
-53,205
-57,659
-62,031
-66,27
-70,314
-74,082
-77,5
-80,509
-83,052
-85,09
-86,603
-87,584
-88,061
-88,103
-87,793
-87,234
-86,542
-85,824
-85,208
-84,815
-84,797
-85,379
-86,721
-88,91
-91,912
-95,47
-99,262
-102,985
-106,201
-108,346
-108,98
-107,754
-104,715
-100,609
-96,278
-92,568
-90,436
-90,602
-93,545
-99,525
-107,862
-116,502
-122,955
-124,328
-117,256
-98,83
-66,362
-17,243
48,978
130,185
223,8
325,85
433,323
544,948
656,63
763,001
855,01
921,979
956,981
953,115
909,516
827,622
708,003
562,416
405,021
253,769
131,271
44,147
-9,764
-38,12
-55,222
-64,459
-64,336
-55,993
-41,668
-29,847
-28,762
-39,041
-54,983
-68,668
-75,021
-74,634
-72,164
-71,103
-71,965
-73,121
-72,176
-68,383
-62,433
-55,265
-47,808
-40,619
-34,085
-28,716
-24,819
-22,394
-21,307
-21,336
-22,301
-24,085
-26,516
-29,37
-32,443
-35,562
-38,577
-41,369
-43,797
-45,716
-47,034
-47,697
-47,685
-47,022
-45,743
-43,889
-41,525
-38,721
-35,545
-32,071
-28,364
-24,489
-20,514
-16,507
-12,53
-8,644
-4,886
-1,279
2,167
5,453
8,591
11,594
14,483
17,283
20,015
22,696
25,344
27,974
30,602
33,247
35,927
38,658
41,458
44,337
47,306
50,375
53,55
56,839
60,245
63,77
67,418
71,192
75,095
79,13
83,297
87,596
92,024
96,578
101,251
106,037
110,925
115,905
120,963
126,088
131,264
136,476
141,706
146,938
152,151
157,326
162,444
167,483
172,421
177,238
181,911
186,419
190,74
194,853
198,737
202,372
205,739
208,82
211,597
214,054
216,175
217,946
219,354
220,39
221,042
221,304
221,168
220,632
219,691
218,345
216,594
214,441
211,889
208,944
205,612
201,903
197,825
193,391
188,613
183,506
178,085
172,367
166,369
160,111
153,611
146,89
139,969
132,869
125,612
118,22
110,715
103,12
95,458
87,749
80,017
72,282
64,565
56,888
49,269
41,729
34,285
26,956
19,759
12,709
5,823
-0,885
-7,403
-13,718
-19,818
-25,695
-31,339
-36,743
-41,9
-46,805
-51,455
-55,847
-59,979
-63,851
-67,463
-70,818
-73,917
-76,765
-79,366
-81,726
-83,849
-85,742
-87,412
-88,867
-90,115
-91,163
-92,021
-92,698
-93,202
-93,544
-93,733
-93,779
-93,692
-93,482
-93,159
-92,732
-92,213
-91,61
-90,933
-90,192
-89,395
-88,552
-87,67
-86,758
-85,823
-84,871
-83,91
-82,944
-81,98
-81,023
-80,078
-79,148
-78,239
-77,353
-76,495
-75,668
-74,873
-74,115
-73,396
-72,716
-72,079
-71,486
-70,937
-70,435
-69,979
-69,571
-69,211
-68,898
-68,633
-68,414
-68,241
-68,112
-68,026
-67,982
-67,978
-68,013
-68,085
-68,192
-68,333
-68,506
-68,71
-68,942
-69,201
-69,485
-69,793
-70,12
-70,467
-70,83
-71,208
-71,598
-71,997
-72,404
-72,816
-73,23
-73,645
-74,056
-74,461
-74,859
-75,246
-75,621
-75,981
-76,326
-76,653
-76,961
-77,249
-77,517
-77,765
-77,99
-78,194
-78,376
-78,536
-78,674
-78,79
-78,885
-78,96
-79,015
-79,053
-79,073
-79,079
-79,07
-79,049
-79,017
-78,977
-78,93
-78,878
-78,825
-78,772
-78,722
-78,678
-78,642
-78,617
-78,605
-78,607
-78,627
-78,664
-78,721
-78,798
-78,896
-79,016
-79,157
-79,319
-79,503
-79,707
-79,931
-80,173
-80,432
-80,705
-80,991
-81,285
-81,586
-81,889
-82,192
-82,491
-82,781
-83,059
-83,321
-83,562
-83,778
-83,964
-84,115
-84,225
-84,29
-84,305
-84,265
-84,164
-83,998
-83,763
-83,455
-83,07
-82,605
-82,056
-81,421
-80,696
-79,88
-78,971
-77,968
-76,868
-75,674
-74,384
-73,001
-71,526
-69,962
-68,313
-66,581
-64,772
-62,89
-60,942
-58,931
-56,866
-54,753
-52,6
-50,416
-48,211
-45,994
-43,777
-41,573
-39,397
-37,262
-35,183
-33,174
-31,251
-29,427
-27,716
-26,132
-24,687
-23,394
-22,266
-21,315
-20,555
-19,997
-19,651
-19,523
-19,618
-19,939
-20,486
-21,257
-22,25
-23,464
-24,898
-26,559
-28,45
-30,574
-32,925
-35,496
-38,273
-41,234
-44,353
-47,591
-50,908
-54,265
-57,622
-60,946
-64,198
-67,328
-70,284
-73,01
-75,451
-77,571
-79,329
-80,673
-81,583
-82,063
-82,149
-81,929
-81,466
-80,774
-79,972
-79,264
-78,858
-78,994
-79,797
-81,234
-83,368
-86,344
-89,97
-93,746
-97,032
-99,037
-99,324
-97,891
-94,637
-89,417
-82,65
-75,383
-69,038
-65,285
-65,138
-68,688
-75,798
-86,111
-98,489
-110,726
-119,714
-121,772
-113,711
-93,264
-58,652
-8,513
57,899
138,855
229,914
326,124
422,027
515,42
607,714
696,268
775,717
836,331
863,361
849,658
794,59
702,342
585,197
454,102
320,077
197,391
95,889
21,822
-24,799
-53,092
-71,731
-85,897
-96,523
-99,126
-91,584
-76,049
-56,481
-38,313
-24,894
-16,659
-13,416
-14,822
-20,12
-28,253
-37,829
-47,111
-54,737
-60,264
-63,526
-64,282
-62,696
-59,205
-54,378
-49,15
-44,37
-40,365
-37,292
-35,295
-34,316
-34,257
-34,981
-36,151
-37,406
-38,532
-39,367
-39,784
-39,727
-39,146
-38,014
-36,384
-34,352
-32,016
-29,484
-26,844
-24,158
-21,474
-18,825
-16,216
-13,634
-11,08
-8,567
-6,113
-3,749
-1,493
0,653
2,698
4,666
6,603
8,574
10,638
12,847
15,227
17,78
20,488
23,313
26,225
29,204
32,234
35,313
38,443
41,627
44,872
48,184
51,559
54,98
58,434
61,906
65,395
68,91
72,469
76,099
79,823
83,663
87,634
91,744
95,996
100,384
104,9
109,528
114,256
119,074
123,97
128,936
133,957
139,018
144,098
149,176
154,229
159,232
164,161
168,992
173,703
178,273
182,681
186,908
190,937
194,748
198,323
201,641
204,684
207,433
209,87
211,977
213,738
215,138
216,166
216,809
217,06
216,91
216,355
215,389
214,012
212,223
210,024
207,416
204,405
200,998
197,203
193,029
188,487
183,592
178,357
172,797
166,931
160,775
154,347
147,669
140,759
133,639
126,331
118,857
111,241
103,505
95,675
87,775
79,828
71,859
63,891
55,946
48,049
40,219
32,478
24,847
17,344
9,988
2,798
-4,212
-11,025
-17,627
-24,005
-30,149
-36,047
-41,691
-47,072
-52,185
-57,024
-61,585
-65,865
-69,862
-73,576
-77,008
-80,159
-83,033
-85,635
-87,969
-90,042
-91,86
-93,433
-94,768
-95,874
-96,76
-97,437
-97,916
-98,205
-98,317
-98,263
-98,054
-97,701
-97,215
-96,608
-95,891
-95,075
-94,171
-93,189
-92,139
-91,032
-89,877
-88,685
-87,463
-86,222
-84,97
-83,714
-82,462
-81,22
-79,996
-78,795
-77,622
-76,482
-75,379
-74,317
-73,3
-72,33
-71,411
-70,544
-69,732
-68,977
-68,281
-67,643
-67,065
-66,548
-66,092
-65,697
-65,364
-65,091
-64,879
-64,727
-64,633
-64,598
-64,618
-64,694
-64,822
-65,001
-65,228
-65,501
-65,818
-66,177
-66,574
-67,007
-67,475
-67,975
-68,504
-69,06
-69,64
-70,242
-70,864
-71,502
-72,154
-72,818
-73,491
-74,171
-74,854
-75,539
-76,223
-76,902
-77,575
-78,239
-78,892
-79,53
-80,151
-80,754
-81,335
-81,894
-82,428
-82,936
-83,417
-83,869
-84,291
-84,683
-85,044
-85,372
-85,668
-85,929
-86,157
-86,351
-86,51
-86,636
-86,727
-86,786
-86,812
-86,806
-86,769
-86,703
-86,606
-86,482
-86,331
-86,154
-85,954
-85,732
-85,489
-85,228
-84,951
-84,659
-84,356
-84,042
-83,719
-83,39
-83,056
-82,718
-82,378
-82,038
-81,699
-81,362
-81,029
-80,701
-80,379
-80,062
-79,751
-79,445
-79,145
-78,849
-78,556
-78,265
-77,974
-77,681
-77,386
-77,086
-76,78
-76,463
-76,135
-75,791
-75,429
-75,045
-74,635
-74,195
-73,721
-73,209
-72,656
-72,058
-71,41
-70,708
-69,95
-69,13
-68,246
-67,294
-66,27
-65,172
-63,997
-62,745
-61,414
-60,004
-58,515
-56,95
-55,31
-53,598
-51,818
-49,972
-48,067
-46,107
-44,098
-42,048
-39,965
-37,858
-35,737
-33,614
-31,504
-29,42
-27,377
-25,392
-23,481
-21,66
-19,945
-18,351
-16,892
-15,583
-14,437
-13,472
-12,701
-12,141
-11,805
-11,704
-11,85
-12,253
-12,916
-13,841
-15,025
-16,467
-18,168
-20,135
-22,377
-24,894
-27,686
-30,749
-34,068
-37,628
-41,399
-45,334
-49,384
-53,499
-57,632
-61,745
-65,797
-69,74
-73,519
-77,061
-80,298
-83,175
-85,635
-87,634
-89,155
-90,193
-90,787
-91,02
-90,961
-90,692
-90,303
-89,873
-89,514
-89,353
-89,497
-90,095
-91,331
-93,334
-96,159
-99,707
-103,65
-107,562
-110,996
-113,393
-114,148
-112,781
-109,06
-103,256
-96,216
-89,044
-82,843
-78,672
-77,474
-79,836
-85,694
-93,887
-102,062
-107,21
-105,843
-94,377
-69,478
-27,943
31,526
107,264
196,649
295,951
402,737
517,886
639,022
759,012
865,879
942,116
975,092
961,531
905,856
818,66
708,973
583,559
449,228
315,957
199,187
110,425
54,308
26,135
11,255
-0,951
-15,015
-30,559
-41,636
-46,365
-47,314
-47,523
-50,454
-56,916
-65,242
-74,071
-82,469
-89,518
-94,349
-96,29
-95,225
-91,745
-87,04
-81,889
-76,34
-70,635
-65,233
-60,473
-56,588
-53,404
-50,297
-47,083
-44,138
-41,676
-39,827
-38,621
-37,898
-37,695
-38,248
-39,528
-41,278
-43,244
-45,147
-46,843
-48,359
-49,657
-50,654
-51,292
-51,518
-51,334
-50,783
-49,872
-48,579
-46,862
-44,693
-42,086
-39,088
-35,753
-32,139
-28,281
-24,197
-19,928
-15,516
-11,012
-6,481
-1,954
2,555
7,024
11,432
15,747
19,94
24,007
27,961
31,815
35,583
39,274
42,892
46,462
50,009
53,563
57,158
60,816
64,549
68,374
72,306
76,357
80,537
84,851
89,291
93,856
98,546
103,357
108,287
113,327
118,465
123,687
128,98
134,329
139,718
145,132
150,553
155,964
161,35
166,692
171,974
177,178
182,283
187,267
192,11
196,788
201,279
205,562
209,613
213,412
216,937
220,168
223,088
225,676
227,917
229,795
231,293
232,4
233,101
233,389
233,253
232,688
231,689
230,254
228,382
226,076
223,338
220,174
216,59
212,597
208,204
203,424
198,272
192,763
186,915
180,747
174,28
167,535
160,535
153,304
145,866
138,247
130,471
122,566
114,556
106,469
98,331
90,169
82,01
73,878
65,799
57,799
49,9
42,125
34,495
27,032
19,753
12,676
5,819
-0,806
-7,184
-13,304
-19,156
-24,732
-30,026
-35,032
-39,749
-44,173
-48,305
-52,147
-55,701
-58,97
-61,961
-64,678
-67,131
-69,326
-71,273
-72,984
-74,468
-75,737
-76,804
-77,682
-78,384
-78,922
-79,31
-79,562
-79,691
-79,709
-79,63
-79,466
-79,229
-78,931
-78,584
-78,197
-77,78
-77,343
-76,893
-76,439
-75,986
-75,541
-75,11
-74,696
-74,304
-73,938
-73,6
-73,292
-73,017
-72,776
-72,569
-72,396
-72,257
-72,151
-72,078
-72,035
-72,022
-72,037
-72,076
-72,14
-72,224
-72,328
-72,448
-72,582
-72,729
-72,885
-73,049
-73,219
-73,393
-73,571
-73,75
-73,93
-74,111
-74,292
-74,472
-74,652
-74,833
-75,013
-75,193
-75,375
-75,558
-75,743
-75,931
-76,122
-76,318
-76,518
-76,725
-76,938
-77,159
-77,387
-77,625
-77,871
-78,128
-78,394
-78,67
-78,957
-79,254
-79,562
-79,88
-80,207
-80,544
-80,89
-81,243
-81,603
-81,969
-82,339
-82,712
-83,086
-83,46
-83,832
-84,201
-84,564
-84,922
-85,271
-85,612
-85,942
-86,261
-86,567
-86,861
-87,14
-87,406
-87,658
-87,895
-88,119
-88,329
-88,526
-88,711
-88,886
-89,051
-89,208
-89,358
-89,502
-89,642
-89,78
-89,917
-90,055
-90,196
-90,341
-90,493
-90,652
-90,821
-91,001
-91,193
-91,399
-91,618
-91,851
-92,099
-92,362
-92,639
-92,929
-93,232
-93,546
-93,868
-94,198
-94,531
-94,864
-95,194
-95,517
-95,828
-96,122
-96,394
-96,64
-96,854
-97,03
-97,164
-97,25
-97,282
-97,255
-97,162
-97
-96,761
-96,442
-96,038
-95,544
-94,956
-94,272
-93,487
-92,599
-91,607
-90,509
-89,302
-87,989
-86,567
-85,04
-83,408
-81,675
-79,845
-77,922
-75,912
-73,822
-71,659
-69,429
-67,142
-64,807
-62,434
-60,034
-57,617
-55,196
-52,785
-50,398
-48,052
-45,762
-43,543
-41,413
-39,388
-37,486
-35,725
-34,121
-32,689
-31,442
-30,394
-29,56
-28,956
-28,592
-28,476
-28,615
-29,016
-29,685
-30,628
-31,846
-33,335
-35,087
-37,094
-39,354
-41,869
-44,637
-47,649
-50,897
-54,362
-58,027
-61,874
-65,869
-69,972
-74,137
-78,305
-82,425
-86,453
-90,351
-94,087
-97,625
-100,9
-103,842
-106,374
-108,437
-110,017
-111,126
-111,77
-111,939
-111,678
-111,133
-110,583
-110,318
-110,504
-111,128
-112,111
-113,548
-115,589
-118,163
-120,893
-123,175
-124,477
-124,717
-124,111
-122,551
-119,748
-115,654
-110,594
-105,498
-101,581
-99,44
-99,179
-101,093
-105,418
-112,141
-120,825
-129,934
-136,992
-139,638
-135,465
-121,928
-96,932
-58,328
-4,335
65,482
150,468
247,85
352,381
458,986
562,522
660,143
752,302
835,774
905,072
951,16
960,801
928,147
853,602
742,629
608,314
462,988
318,609
188,957
83,43
5,8
-46,405
-80,926
-104,441
-118,196
-117,847
-101,772
-74,687
-45,179
-25,855
-21,669
-27,857
-39,245
-49,004
-55,019
-61,355
-69,554
-79,773
-90,784
-99,308
-103,773
-104,153
-100,731
-94,419
-86,227
-77,118
-68,152
-60,073
-53,3
-47,983
-44,104
-41,644
-40,441
-40,173
-40,451
-40,967
-41,563
-42,21
-42,91
-43,612
-44,237
-44,735
-45,106
-45,377
-45,543
-45,57
-45,395
-44,948
-44,221
-43,234
-42,006
-40,556
-38,87
-36,916
-34,689
-32,212
-29,511
-26,617
-23,539
-20,271
-16,83
-13,254
-9,586
-5,887
-2,185
1,517
5,207
8,877
12,51
16,081
19,583
23,029
26,428
29,792
33,125
36,43
39,723
43,033
46,393
49,84
53,397
57,077
60,897
64,867
68,998
73,299
77,769
82,399
87,185
92,12
97,198
102,414
107,755
113,204
118,742
124,349
130,007
135,695
141,394
147,081
152,736
158,337
163,866
169,301
174,622
179,807
184,83
189,67
194,301
198,702
202,848
206,716
210,285
213,535
216,447
219,002
221,184
222,979
224,373
225,354
225,913
226,042
225,733
224,985
223,793
222,158
220,083
217,57
214,626
211,258
207,476
203,29
198,712
193,758
188,443
182,783
176,798
170,508
163,934
157,098
150,024
142,736
135,26
127,621
119,845
111,958
103,987
95,959
87,898
79,831
71,783
63,779
55,842
47,995
40,26
32,658
25,209
17,931
10,841
3,955
-2,713
-9,149
-15,342
-21,282
-26,961
-32,371
-37,507
-42,365
-46,942
-51,238
-55,251
-58,985
-62,443
-65,627
-68,545
-71,201
-73,605
-75,764
-77,687
-79,384
-80,866
-82,144
-83,229
-84,132
-84,866
-85,441
-85,869
-86,162
-86,33
-86,385
-86,338
-86,197
-85,974
-85,677
-85,315
-84,897
-84,431
-83,923
-83,381
-82,811
-82,218
-81,607
-80,984
-80,351
-79,713
-79,072
-78,431
-77,793
-77,159
-76,53
-75,907
-75,291
-74,683
-74,083
-73,49
-72,905
-72,327
-71,758
-71,197
-70,644
-70,101
-69,567
-69,044
-68,532
-68,032
-67,545
-67,073
-66,616
-66,176
-65,755
-65,354
-64,975
-64,619
-64,288
-63,984
-63,707
-63,459
-63,242
-63,056
-62,902
-62,781
-62,693
-62,64
-62,622
-62,639
-62,691
-62,778
-62,901
-63,058
-63,248
-63,471
-63,725
-64,008
-64,318
-64,654
-65,013
-65,392
-65,79
-66,203
-66,629
-67,064
-67,505
-67,949
-68,393
-68,834
-69,268
-69,694
-70,109
-70,51
-70,895
-71,263
-71,612
-71,941
-72,249
-72,535
-72,799
-73,04
-73,258
-73,453
-73,626
-73,778
-73,909
-74,022
-74,117
-74,196
-74,262
-74,315
-74,358
-74,393
-74,423
-74,449
-74,476
-74,504
-74,537
-74,578
-74,63
-74,695
-74,775
-74,873
-74,99
-75,128
-75,289
-75,473
-75,68
-75,911
-76,166
-76,445
-76,745
-77,066
-77,406
-77,763
-78,133
-78,513
-78,901
-79,291
-79,681
-80,065
-80,44
-80,8
-81,141
-81,458
-81,745
-81,998
-82,21
-82,376
-82,491
-82,547
-82,54
-82,462
-82,309
-82,075
-81,756
-81,346
-80,84
-80,235
-79,528
-78,715
-77,794
-76,763
-75,62
-74,367
-73,003
-71,531
-69,952
-68,271
-66,491
-64,618
-62,658
-60,617
-58,503
-56,322
-54,086
-51,801
-49,48
-47,132
-44,77
-42,406
-40,057
-37,737
-35,464
-33,255
-31,127
-29,098
-27,185
-25,407
-23,776
-22,306
-21,013
-19,908
-19,007
-18,324
-17,868
-17,651
-17,68
-17,96
-18,498
-19,294
-20,343
-21,638
-23,175
-24,952
-26,977
-29,255
-31,785
-34,562
-37,578
-40,818
-44,266
-47,893
-51,654
-55,501
-59,382
-63,25
-67,07
-70,8
-74,39
-77,777
-80,884
-83,637
-85,973
-87,846
-89,219
-90,072
-90,406
-90,253
-89,673
-88,752
-87,59
-86,29
-84,968
-83,739
-82,697
-81,991
-81,829
-82,365
-83,69
-85,738
-88,193
-90,734
-93,103
-94,892
-95,589
-94,797
-92,217
-88,038
-83,187
-78,573
-74,838
-72,926
-73,748
-77,601
-84,715
-93,535
-99,948
-101,487
-96,67
-84,702
-67,786
-43,554
-4,972
53,752
138,524
247,304
368,125
488,105
595,53
684,495
756,357
813,465
854,402
873,817
864,572
820,251
739,984
628,368
494,828
352,469
216,09
100,389
12,285
-46,207
-78,784
-95,29
-98,887
-93,611
-84,665
-72,802
-64,595
-62,522
-62,423
-62,41
-58,002
-48,452
-38,896
-32,078
-29,872
-32,231
-36,131
-40,156
-43,917
-46,787
-48,789
-49,643
-48,865
-46,6
-43,268
-39,175
-34,78
-30,7
-27,317
-24,979
-23,909
-23,999
-25,074
-26,94
-29,269
-31,666
-33,839
-35,54
-36,633
-37,118
-36,99
-36,263
-34,991
-33,235
-31,064
-28,542
-25,712
-22,603
-19,255
-15,722
-12,068
-8,365
-4,679
-1,067
2,431
5,793
9,003
12,058
14,963
17,727
20,366
22,901
25,348
27,721
30,037
32,311
34,564
36,819
39,099
41,423
43,81
46,273
48,825
51,479
54,245
57,13
60,141
63,283
66,562
69,983
73,552
77,272
81,147
85,175
89,356
93,688
98,167
102,786
107,539
112,414
117,4
122,485
127,655
132,893
138,182
143,503
148,837
154,163
159,459
164,704
169,873
174,945
179,896
184,702
189,341
193,789
198,024
202,023
205,764
209,229
212,397
215,249
217,769
219,94
221,749
223,182
224,227
224,875
225,118
224,948
224,362
223,356
221,93
220,084
217,821
215,147
212,067
208,591
204,727
200,488
195,887
190,939
185,658
180,063
174,172
168,005
161,581
154,923
148,053
140,992
133,765
126,395
118,904
111,318
103,658
95,949
88,214
80,475
72,755
65,076
57,46
49,926
42,496
35,189
28,021
21,011
14,175
7,526
1,079
-5,154
-11,163
-16,937
-22,468
-27,749
-32,774
-37,538
-42,038
-46,272
-50,239
-53,94
-57,376
-60,551
-63,466
-66,128
-68,54
-70,71
-72,642
-74,346
-75,828
-77,097
-78,162
-79,033
-79,718
-80,229
-80,576
-80,768
-80,817
-80,732
-80,525
-80,206
-79,784
-79,27
-78,674
-78,005
-77,272
-76,485
-75,651
-74,78
-73,879
-72,955
-72,015
-71,065
-70,111
-69,159
-68,213
-67,278
-66,358
-65,458
-64,58
-63,729
-62,907
-62,116
-61,359
-60,638
-59,954
-59,309
-58,703
-58,137
-57,612
-57,129
-56,687
-56,287
-55,928
-55,611
-55,335
-55,1
-54,905
-54,749
-54,632
-54,552
-54,51
-54,505
-54,534
-54,599
-54,698
-54,831
-54,997
-55,194
-55,422
-55,68
-55,967
-56,282
-56,624
-56,99
-57,381
-57,795
-58,23
-58,685
-59,158
-59,649
-60,156
-60,677
-61,21
-61,754
-62,307
-62,867
-63,433
-64,003
-64,575
-65,147
-65,717
-66,283
-66,845
-67,399
-67,944
-68,478
-68,999
-69,506
-69,996
-70,468
-70,92
-71,352
-71,763
-72,151
-72,516
-72,857
-73,175
-73,469
-73,74
-73,988
-74,214
-74,418
-74,601
-74,764
-74,908
-75,036
-75,148
-75,246
-75,332
-75,408
-75,477
-75,539
-75,599
-75,657
-75,716
-75,778
-75,846
-75,922
-76,007
-76,105
-76,218
-76,346
-76,491
-76,654
-76,837
-77,039
-77,261
-77,5
-77,758
-78,031
-78,319
-78,62
-78,931
-79,248
-79,571
-79,895
-80,216
-80,531
-80,836
-81,125
-81,394
-81,639
-81,852
-82,029
-82,165
-82,252
-82,287
-82,264
-82,176
-82,018
-81,785
-81,471
-81,072
-80,582
-79,998
-79,316
-78,533
-77,647
-76,657
-75,562
-74,362
-73,058
-71,652
-70,148
-68,548
-66,856
-65,077
-63,217
-61,282
-59,28
-57,219
-55,108
-52,958
-50,783
-48,597
-46,413
-44,247
-42,117
-40,038
-38,027
-36,101
-34,275
-32,562
-30,978
-29,538
-28,256
-27,149
-26,231
-25,516
-25,016
-24,741
-24,702
-24,904
-25,349
-26,036
-26,964
-28,135
-29,56
-31,247
-33,199
-35,418
-37,901
-40,636
-43,607
-46,787
-50,132
-53,596
-57,129
-60,682
-64,22
-67,7
-71,076
-74,297
-77,291
-79,994
-82,351
-84,309
-85,83
-86,902
-87,527
-87,745
-87,638
-87,278
-86,758
-86,183
-85,642
-85,259
-85,161
-85,454
-86,287
-87,852
-90,263
-93,558
-97,623
-102,114
-106,629
-110,77
-114,008
-115,762
-115,593
-113,27
-109,04
-103,725
-98,29
-93,632
-90,649
-90,126
-92,453
-97,513
-104,236
-110,31
-112,951
-109,26
-96,001
-70,206
-29,631
27,548
100,651
186,977
284,345
388,697
496,853
605,252
704,476
786,104
841,492
864,097
857,878
826,692
773,535
700,435
602,388
480,383
344,737
211,616
101,131
24,932
-18,766
-41,439
-56,065
-70,005
-83,045
-89,319
-85,65
-73,636
-57,255
-41,977
-30,975
-24,394
-21,885
-23,185
-27,663
-34,508
-42,64
-50,474
-56,795
-61,28
-63,804
-64,151
-62,463
-59,074
-54,46
-49,517
-45,107
-41,596
-39,176
-37,989
-37,979
-39,053
-41,067
-43,66
-46,401
-49,012
-51,291
-53,087
-54,329
-54,954
-54,906
-54,201
-52,896
-51,04
-48,68
-45,862
-42,623
-39,015
-35,104
-30,955
-26,636
-22,215
-17,758
-13,326
-8,979
-4,763
-0,703
3,178
6,873
10,383
13,709
16,861
19,858
22,711
25,436
28,05
30,567
33,007
35,388
37,73
40,05
42,366
44,694
47,049
49,446
51,898
54,417
57,013
59,697
62,48
65,371
68,38
71,518
74,791
78,205
81,767
85,479
89,343
93,359
97,523
101,831
106,277
110,851
115,544
120,344
125,237
130,208
135,241
140,316
145,415
150,517
155,599
160,64
165,615
170,501
175,273
179,908
184,379
188,663
192,736
196,573
200,151
203,449
206,444
209,115
211,444
213,412
215,004
216,203
216,997
217,376
217,329
216,85
215,933
214,576
212,778
210,54
207,866
204,76
201,23
197,285
192,937
188,199
183,086
177,613
171,799
165,664
159,227
152,512
145,539
138,334
130,922
123,326
115,574
107,691
99,703
91,638
83,522
75,381
67,242
59,129
51,067
43,081
35,194
27,428
19,804
12,342
5,06
-2,023
-8,893
-15,534
-21,935
-28,084
-33,97
-39,587
-44,926
-49,984
-54,755
-59,237
-63,43
-67,334
-70,949
-74,28
-77,33
-80,103
-82,607
-84,847
-86,833
-88,572
-90,074
-91,35
-92,409
-93,263
-93,924
-94,402
-94,709
-94,858
-94,861
-94,729
-94,473
-94,106
-93,638
-93,079
-92,441
-91,733
-90,964
-90,144
-89,281
-88,382
-87,455
-86,508
-85,547
-84,577
-83,605
-82,635
-81,671
-80,719
-79,782
-78,862
-77,964
-77,088
-76,238
-75,416
-74,622
-73,858
-73,124
-72,422
-71,751
-71,113
-70,506
-69,931
-69,387
-68,875
-68,393
-67,943
-67,522
-67,131
-66,77
-66,439
-66,137
-65,864
-65,621
-65,406
-65,221
-65,065
-64,938
-64,839
-64,77
-64,729
-64,717
-64,734
-64,778
-64,85
-64,95
-65,077
-65,23
-65,409
-65,612
-65,841
-66,093
-66,368
-66,665
-66,984
-67,324
-67,684
-68,063
-68,46
-68,875
-69,305
-69,75
-70,209
-70,679
-71,159
-71,648
-72,143
-72,643
-73,146
-73,65
-74,153
-74,653
-75,148
-75,636
-76,115
-76,584
-77,042
-77,486
-77,917
-78,333
-78,734
-79,119
-79,487
-79,838
-80,173
-80,491
-80,792
-81,076
-81,343
-81,594
-81,829
-82,05
-82,255
-82,448
-82,627
-82,795
-82,954
-83,103
-83,245
-83,381
-83,513
-83,643
-83,773
-83,904
-84,04
-84,181
-84,329
-84,486
-84,653
-84,831
-85,02
-85,221
-85,435
-85,66
-85,897
-86,144
-86,401
-86,665
-86,936
-87,212
-87,489
-87,765
-88,037
-88,303
-88,558
-88,799
-89,024
-89,227
-89,404
-89,553
-89,667
-89,744
-89,777
-89,762
-89,693
-89,566
-89,375
-89,116
-88,782
-88,371
-87,877
-87,296
-86,625
-85,861
-85,001
-84,042
-82,983
-81,822
-80,559
-79,194
-77,729
-76,164
-74,503
-72,75
-70,908
-68,982
-66,977
-64,899
-62,754
-60,548
-58,291
-55,989
-53,651
-51,29
-48,916
-46,542
-44,185
-41,858
-39,576
-37,355
-35,212
-33,165
-31,231
-29,427
-27,769
-26,274
-24,959
-23,839
-22,93
-22,246
-21,797
-21,59
-21,632
-21,93
-22,492
-23,316
-24,4
-25,739
-27,327
-29,164
-31,248
-33,573
-36,134
-38,921
-41,918
-45,111
-48,482
-51,997
-55,625
-59,321
-63,032
-66,719
-70,343
-73,871
-77,28
-80,53
-83,568
-86,343
-88,793
-90,862
-92,534
-93,784
-94,577
-94,968
-95,052
-95,008
-95,13
-95,676
-96,819
-98,687
-101,341
-104,688
-108,553
-112,565
-116,097
-118,507
-119,169
-117,66
-113,851
-107,898
-100,174
-91,317
-82,319
-74,412
-69,076
-67,506
-70,34
-77,682
-89,075
-103,59
-119,724
-135,243
-147,072
-151,976
-146,969
-129,448
-97,475
-49,748
14,238
93,78
186,704
289,682
398,41
507,909
612,997
708,208
788,135
847,992
883,693
893,503
878,505
840,31
781,595
703,322
603,916
486,462
357,54
228,632
116,517
31,228
-23,234
-48,164
-52,724
-44,29
-29,641
-17,649
-13,001
-18,08
-31,532
-45,762
-54,231
-54,595
-48,566
-41,771
-38,673
-40,189
-44,99
-50,79
-56,419
-61,666
-66,312
-70,149
-72,59
-73,251
-72,286
-69,873
-66,205
-61,678
-56,831
-52,151
-48,095
-44,893
-42,51
-40,879
-39,901
-39,381
-39,049
-38,705
-38,216
-37,511
-36,632
-35,628
-34,534
-33,418
-32,343
-31,351
-30,469
-29,698
-29,002
-28,34
-27,667
-26,939
-26,137
-25,232
-24,183
-22,963
-21,543
-19,895
-18,006
-15,863
-13,453
-10,775
-7,832
-4,636
-1,217
2,383
6,108
9,912
13,765
17,638
21,502
25,336
29,123
32,858
36,55
40,208
43,837
47,448
51,053
54,668
58,316
62,027
65,832
69,755
73,815
78,024
82,394
86,931
91,637
96,506
101,524
106,679
111,96
117,351
122,841
128,41
134,039
139,706
145,388
151,064
156,71
162,305
167,824
173,245
178,546
183,704
188,697
193,503
198,099
202,462
206,566
210,39
213,912
217,109
219,961
222,449
224,555
226,262
227,556
228,425
228,856
228,84
228,371
227,443
226,053
224,2
221,886
219,115
215,891
212,222
208,118
203,59
198,65
193,315
187,6
181,524
175,107
168,371
161,338
154,032
146,479
138,704
130,736
122,6
114,325
105,939
97,469
88,945
80,394
71,844
63,322
54,855
46,469
38,189
30,039
22,042
14,219
6,591
-0,824
-8,01
-14,95
-21,63
-28,038
-34,164
-39,999
-45,536
-50,768
-55,694
-60,311
-64,619
-68,62
-72,316
-75,713
-78,816
-81,632
-84,169
-86,436
-88,443
-90,2
-91,72
-93,014
-94,096
-94,979
-95,676
-96,202
-96,57
-96,794
-96,888
-96,865
-96,739
-96,523
-96,228
-95,867
-95,451
-94,992
-94,498
-93,98
-93,445
-92,902
-92,357
-91,817
-91,285
-90,768
-90,267
-89,787
-89,329
-88,895
-88,486
-88,102
-87,744
-87,411
-87,101
-86,814
-86,548
-86,301
-86,07
-85,854
-85,651
-85,457
-85,27
-85,09
-84,912
-84,736
-84,559
-84,38
-84,197
-84,009
-83,816
-83,616
-83,409
-83,194
-82,974
-82,747
-82,515
-82,279
-82,041
-81,801
-81,561
-81,324
-81,092
-80,865
-80,648
-80,442
-80,249
-80,072
-79,913
-79,774
-79,657
-79,564
-79,497
-79,456
-79,444
-79,46
-79,506
-79,582
-79,687
-79,822
-79,986
-80,178
-80,397
-80,641
-80,908
-81,198
-81,507
-81,833
-82,174
-82,527
-82,889
-83,258
-83,631
-84,005
-84,376
-84,743
-85,102
-85,451
-85,786
-86,107
-86,409
-86,692
-86,953
-87,191
-87,405
-87,594
-87,757
-87,894
-88,006
-88,093
-88,156
-88,195
-88,214
-88,213
-88,194
-88,16
-88,113
-88,055
-87,99
-87,921
-87,849
-87,777
-87,71
-87,648
-87,596
-87,555
-87,528
-87,516
-87,523
-87,548
-87,595
-87,662
-87,753
-87,865
-88
-88,158
-88,336
-88,533
-88,748
-88,977
-89,218
-89,467
-89,72
-89,973
-90,222
-90,46
-90,683
-90,886
-91,062
-91,206
-91,313
-91,375
-91,387
-91,343
-91,235
-91,059
-90,808
-90,477
-90,061
-89,554
-88,953
-88,253
-87,45
-86,543
-85,526
-84,4
-83,162
-81,811
-80,348
-78,774
-77,09
-75,3
-73,407
-71,415
-69,331
-67,16
-64,91
-62,587
-60,201
-57,761
-55,277
-52,758
-50,218
-47,667
-45,122
-42,597
-40,109
-37,673
-35,308
-33,03
-30,859
-28,809
-26,898
-25,138
-23,544
-22,129
-20,909
-19,897
-19,106
-18,548
-18,234
-18,172
-18,369
-18,829
-19,551
-20,532
-21,769
-23,261
-25,013
-27,03
-29,315
-31,867
-34,682
-37,747
-41,046
-44,554
-48,229
-52,029
-55,905
-59,808
-63,697
-67,529
-71,257
-74,825
-78,162
-81,197
-83,867
-86,111
-87,885
-89,171
-89,961
-90,284
-90,207
-89,796
-89,135
-88,33
-87,473
-86,687
-86,114
-85,862
-86,077
-86,966
-88,652
-91,187
-94,49
-98,231
-101,993
-105,417
-108,043
-109,308
-108,814
-106,358
-102,143
-97
-91,992
-87,952
-85,547
-85,601
-88,652
-94,492
-102,235
-109,038
-110,365
-103,379
-86,246
-58,296
-21,881
23,872
82,675
158,402
256,558
376,599
510,466
643,805
759,28
845,059
895,102
914,376
911,578
888,173
844,947
774,438
667,752
531,645
378,048
227,369
105,235
21,114
-25,491
-43,757
-51,329
-57,147
-63,03
-67,176
-64,094
-53,394
-38,69
-23,805
-12,869
-7,203
-6,143
-9,43
-16,14
-24,996
-34,892
-44,283
-51,876
-57,319
-60,493
-61,153
-59,421
-55,681
-50,437
-44,583
-39,005
-34,082
-30,012
-26,977
-24,956
-23,874
-23,63
-23,924
-24,381
-24,787
-25,002
-24,925
-24,567
-23,943
-23,06
-21,985
-20,797
-19,538
-18,251
-16,97
-15,689
-14,411
-13,125
-11,786
-10,383
-8,926
-7,415
-5,859
-4,246
-2,532
-0,686
1,31
3,475
5,82
8,355
11,102
14,054
17,187
20,46
23,811
27,204
30,622
34,05
37,476
40,885
44,25
47,56
50,821
54,036
57,21
60,347
63,446
66,519
69,596
72,709
75,894
79,181
82,585
86,121
89,8
93,631
97,623
101,774
106,074
110,516
115,093
119,798
124,625
129,562
134,589
139,69
144,842
150,026
155,222
160,408
165,563
170,665
175,692
180,624
185,441
190,122
194,644
198,982
203,113
207,015
210,663
214,036
217,111
219,868
222,287
224,351
226,042
227,347
228,251
228,743
228,812
228,451
227,653
226,414
224,732
222,606
220,04
217,036
213,602
209,746
205,478
200,81
195,756
190,333
184,556
178,446
172,023
165,309
158,325
151,098
143,651
136,01
128,201
120,252
112,188
104,039
95,829
87,587
79,34
71,113
62,932
54,823
46,81
38,917
31,166
23,578
16,174
8,972
1,989
-4,759
-11,259
-17,497
-23,464
-29,15
-34,548
-39,652
-44,458
-48,965
-53,171
-57,076
-60,684
-63,997
-67,019
-69,756
-72,215
-74,404
-76,329
-78,002
-79,431
-80,628
-81,603
-82,369
-82,937
-83,321
-83,532
-83,585
-83,491
-83,264
-82,916
-82,46
-81,908
-81,272
-80,562
-79,79
-78,966
-78,1
-77,2
-76,275
-75,333
-74,38
-73,423
-72,468
-71,521
-70,585
-69,667
-68,769
-67,895
-67,05
-66,235
-65,453
-64,707
-63,997
-63,327
-62,696
-62,105
-61,555
-61,046
-60,578
-60,151
-59,764
-59,417
-59,11
-58,841
-58,611
-58,419
-58,264
-58,145
-58,063
-58,015
-58,003
-58,026
-58,083
-58,175
-58,3
-58,459
-58,65
-58,874
-59,129
-59,415
-59,729
-60,072
-60,44
-60,834
-61,25
-61,688
-62,146
-62,622
-63,115
-63,622
-64,141
-64,671
-65,21
-65,756
-66,306
-66,859
-67,413
-67,965
-68,513
-69,057
-69,592
-70,118
-70,632
-71,133
-71,618
-72,085
-72,534
-72,961
-73,367
-73,75
-74,109
-74,444
-74,755
-75,043
-75,308
-75,551
-75,773
-75,975
-76,159
-76,326
-76,477
-76,616
-76,742
-76,859
-76,968
-77,072
-77,173
-77,273
-77,375
-77,479
-77,588
-77,704
-77,829
-77,964
-78,11
-78,27
-78,444
-78,633
-78,839
-79,062
-79,302
-79,559
-79,831
-80,118
-80,418
-80,727
-81,045
-81,366
-81,689
-82,009
-82,323
-82,625
-82,912
-83,178
-83,42
-83,63
-83,805
-83,937
-84,022
-84,054
-84,027
-83,935
-83,775
-83,541
-83,228
-82,832
-82,349
-81,774
-81,105
-80,337
-79,467
-78,492
-77,412
-76,224
-74,93
-73,529
-72,023
-70,414
-68,706
-66,902
-65,008
-63,028
-60,969
-58,838
-56,644
-54,394
-52,099
-49,77
-47,419
-45,059
-42,705
-40,373
-38,076
-35,831
-33,655
-31,563
-29,572
-27,695
-25,946
-24,339
-22,888
-21,607
-20,512
-19,615
-18,927
-18,461
-18,226
-18,231
-18,479
-18,973
-19,711
-20,692
-21,916
-23,389
-25,117
-27,099
-29,334
-31,815
-34,53
-37,465
-40,592
-43,873
-47,266
-50,726
-54,211
-57,688
-61,119
-64,463
-67,673
-70,688
-73,45
-75,91
-78,02
-79,741
-81,058
-81,966
-82,497
-82,717
-82,688
-82,479
-82,176
-81,855
-81,61
-81,534
-81,693
-82,18
-83,145
-84,712
-86,939
-89,752
-92,915
-96,147
-99,193
-101,708
-103,201
-103,185
-101,348
-97,811
-93,115
-87,858
-82,715
-78,414
-75,795
-75,935
-78,464
-81,099
-81,724
-78,027
-70,57
-63,262
-55,635
-44,006
-20,7
26,071
100,47
199,552
317,059
442,215
565,21
678,547
771,068
830,799
852,754
835,799
786,365
716,325
629,323
527,984
415,583
296,888
187,316
100,178
41,516
9,888
-7,414
-20,652
-33,955
-47,308
-55,456
-56,626
-53,406
-49,184
-47,562
-49,501
-53,734
-58,78
-63,521
-67,387
-69,724
-69,622
-66,818
-61,731
-55,242
-48,659
-42,63
-37,061
-32,134
-28,168
-25,242
-23,352
-22,183
-21,038
-19,71
-18,524
-17,613
-17,032
-16,802
-16,752
-16,872
-17,362
-18,183
-19,098
-19,95
-20,581
-20,91
-20,993
-20,812
-20,273
-19,367
-18,125
-16,587
-14,827
-12,885
-10,765
-8,491
-6,088
-3,572
-0,956
1,761
4,592
7,53
10,56
13,654
16,768
19,872
22,951
25,991
28,989
31,947
34,867
37,757
40,629
43,488
46,331
49,154
51,955
54,74
57,524
60,329
63,187
66,125
69,168
72,336
75,644
79,103
82,72
86,496
90,428
94,514
98,755
103,15
107,699
112,398
117,236
122,204
127,285
132,463
137,721
143,038
148,395
153,773
159,154
164,517
169,844
175,117
180,313
185,41
190,385
195,214
199,871
204,334
208,576
212,573
216,302
219,74
222,867
225,662
228,104
230,178
231,865
233,151
234,022
234,467
234,477
234,044
233,161
231,826
230,037
227,795
225,101
221,96
218,378
214,364
209,927
205,079
199,833
194,205
188,21
181,868
175,198
168,221
160,96
153,438
145,681
137,713
129,561
121,252
112,814
104,272
95,655
86,991
78,305
69,625
60,977
52,387
43,879
35,478
27,206
19,085
11,136
3,379
-4,168
-11,488
-18,565
-25,386
-31,937
-38,209
-44,19
-49,874
-55,253
-60,324
-65,083
-69,529
-73,661
-77,481
-80,992
-84,197
-87,103
-89,716
-92,043
-94,094
-95,877
-97,404
-98,685
-99,732
-100,557
-101,173
-101,593
-101,829
-101,896
-101,806
-101,572
-101,209
-100,729
-100,146
-99,472
-98,719
-97,9
-97,026
-96,108
-95,157
-94,182
-93,192
-92,195
-91,201
-90,215
-89,244
-88,295
-87,371
-86,478
-85,619
-84,798
-84,017
-83,278
-82,583
-81,934
-81,331
-80,775
-80,265
-79,803
-79,387
-79,017
-78,692
-78,411
-78,173
-77,976
-77,82
-77,701
-77,62
-77,573
-77,56
-77,578
-77,627
-77,705
-77,81
-77,941
-78,097
-78,277
-78,479
-78,703
-78,947
-79,212
-79,495
-79,797
-80,117
-80,453
-80,805
-81,172
-81,553
-81,947
-82,352
-82,769
-83,195
-83,629
-84,07
-84,516
-84,966
-85,419
-85,872
-86,324
-86,774
-87,22
-87,66
-88,092
-88,515
-88,927
-89,326
-89,71
-90,078
-90,429
-90,761
-91,072
-91,362
-91,63
-91,875
-92,096
-92,294
-92,469
-92,619
-92,747
-92,852
-92,935
-92,997
-93,04
-93,065
-93,074
-93,068
-93,05
-93,021
-92,984
-92,94
-92,893
-92,845
-92,797
-92,753
-92,714
-92,684
-92,663
-92,655
-92,66
-92,68
-92,716
-92,769
-92,839
-92,925
-93,027
-93,143
-93,273
-93,413
-93,562
-93,717
-93,873
-94,029
-94,178
-94,318
-94,443
-94,549
-94,628
-94,677
-94,689
-94,658
-94,578
-94,444
-94,248
-93,986
-93,65
-93,236
-92,737
-92,148
-91,464
-90,679
-89,79
-88,793
-87,687
-86,468
-85,137
-83,694
-82,141
-80,479
-78,712
-76,843
-74,878
-72,821
-70,682
-68,466
-66,183
-63,845
-61,464
-59,054
-56,631
-54,212
-51,811
-49,447
-47,137
-44,901
-42,758
-40,728
-38,828
-37,078
-35,499
-34,111
-32,931
-31,977
-31,26
-30,791
-30,578
-30,631
-30,96
-31,565
-32,447
-33,602
-35,028
-36,728
-38,7
-40,938
-43,431
-46,165
-49,124
-52,294
-55,654
-59,174
-62,821
-66,549
-70,307
-74,06
-77,764
-81,386
-84,9
-88,259
-91,413
-94,312
-96,9
-99,131
-100,989
-102,44
-103,442
-104,033
-104,31
-104,472
-104,826
-105,647
-107,116
-109,327
-112,351
-116,124
-120,37
-124,623
-128,109
-129,968
-129,585
-126,689
-121,19
-113,329
-103,756
-93,286
-83,236
-75,295
-70,821
-70,699
-75,357
-84,521
-97,333
-112,69
-128,754
-142,886
-152,217
-153,901
-145,507
-125,064
-90,818
-41,407
23,87
103,529
193,723
290,561
390,882
494,159
600,909
707,29
804,195
877,082
912,836
907,708
865,974
799,34
717,066
619,165
505,617
377,591
244,482
126,782
38,814
-14,166
-37,856
-49,115
-59,536
-72,838
-87,07
-95,553
-95,836
-90,018
-81,379
-73,554
-67,64
-63,192
-60,152
-58,263
-57,635
-58,339
-59,846
-61,939
-64,702
-67,903
-71,106
-73,912
-75,779
-76,464
-76,135
-74,893
-72,869
-70,442
-68,11
-66,283
-65,32
-65,359
-66,295
-67,999
-70,268
-72,781
-75,149
-77,052
-78,281
-78,743
-78,455
-77,452
-75,769
-73,471
-70,655
-67,407
-63,795
-59,872
-55,67
-51,235
-46,637
-41,952
-37,259
-32,631
-28,116
-23,742
-19,532
-15,493
-11,626
-7,925
-4,377
-0,964
2,328
5,508
8,588
11,577
14,492
17,356
20,19
23,017
25,855
28,719
31,626
34,589
37,621
40,733
43,935
47,236
50,644
54,17
57,825
61,618
65,555
69,643
73,885
78,284
82,84
87,551
92,412
97,418
102,559
107,826
113,206
118,686
124,251
129,883
135,562
141,27
146,985
152,684
158,342
163,936
169,441
174,829
180,075
185,153
190,036
194,698
199,113
203,257
207,105
210,633
213,819
216,642
219,082
221,122
222,743
223,932
224,675
224,962
224,785
224,138
223,016
221,417
219,342
216,793
213,777
210,298
206,367
201,996
197,196
191,984
186,378
180,395
174,056
167,384
160,402
153,135
145,608
137,848
129,882
121,738
113,445
105,031
96,525
87,956
79,352
70,742
62,153
53,612
45,146
36,779
28,537
20,443
12,519
4,785
-2,739
-10,035
-17,086
-23,879
-30,399
-36,636
-42,58
-48,223
-53,559
-58,583
-63,293
-67,688
-71,767
-75,533
-78,989
-82,14
-84,992
-87,551
-89,826
-91,826
-93,561
-95,042
-96,279
-97,287
-98,075
-98,659
-99,05
-99,262
-99,309
-99,205
-98,962
-98,596
-98,118
-97,542
-96,881
-96,148
-95,353
-94,508
-93,624
-92,711
-91,777
-90,832
-89,884
-88,939
-88,005
-87,086
-86,189
-85,318
-84,476
-83,667
-82,893
-82,158
-81,461
-80,806
-80,192
-79,62
-79,089
-78,601
-78,153
-77,746
-77,378
-77,047
-76,753
-76,492
-76,264
-76,066
-75,896
-75,752
-75,631
-75,532
-75,453
-75,391
-75,345
-75,313
-75,293
-75,284
-75,285
-75,294
-75,311
-75,334
-75,363
-75,397
-75,435
-75,476
-75,521
-75,568
-75,617
-75,668
-75,72
-75,774
-75,829
-75,884
-75,94
-75,997
-76,054
-76,112
-76,172
-76,233
-76,295
-76,36
-76,427
-76,497
-76,571
-76,649
-76,731
-76,818
-76,911
-77,008
-77,112
-77,221
-77,337
-77,459
-77,588
-77,724
-77,868
-78,02
-78,18
-78,349
-78,527
-78,714
-78,91
-79,117
-79,334
-79,562
-79,801
-80,051
-80,312
-80,584
-80,866
-81,16
-81,463
-81,775
-82,095
-82,422
-82,756
-83,094
-83,434
-83,777
-84,119
-84,458
-84,794
-85,122
-85,442
-85,749
-86,042
-86,318
-86,573
-86,804
-87,008
-87,181
-87,32
-87,421
-87,48
-87,492
-87,454
-87,361
-87,209
-86,993
-86,709
-86,353
-85,922
-85,411
-84,818
-84,138
-83,37
-82,51
-81,557
-80,507
-79,361
-78,117
-76,774
-75,333
-73,795
-72,161
-70,433
-68,614
-66,708
-64,718
-62,648
-60,505
-58,295
-56,025
-53,702
-51,335
-48,934
-46,512
-44,083
-41,659
-39,257
-36,892
-34,582
-32,343
-30,192
-28,145
-26,216
-24,42
-22,772
-21,286
-19,98
-18,867
-17,963
-17,28
-16,831
-16,626
-16,674
-16,978
-17,537
-18,354
-19,431
-20,778
-22,405
-24,318
-26,519
-29,01
-31,782
-34,822
-38,108
-41,597
-45,244
-49,001
-52,817
-56,651
-60,46
-64,193
-67,796
-71,199
-74,328
-77,121
-79,519
-81,468
-82,946
-83,949
-84,503
-84,682
-84,562
-84,232
-83,801
-83,373
-83,068
-83,026
-83,371
-84,257
-85,898
-88,433
-91,934
-96,348
-101,377
-106,637
-111,73
-116,11
-119,161
-120,418
-119,555
-116,683
-112,559
-108,056
-104,062
-101,534
-101,194
-103,47
-108,404
-115,029
-121,174
-124,227
-121,187
-108,929
-84,744
-46,154
8,575
79,852
166,653
266,615
376,13
489,634
599,792
699,396
782,891
848,81
899,969
937,925
958,669
952,049
904,065
805,322
661,231
490,666
320,281
177,643
75,736
12,808
-21,466
-43,965
-64,073
-82,558
-96,913
-101,051
-93,644
-78,178
-58,615
-39,981
-24,988
-14,155
-8,228
-7,091
-9,935
-16,121
-24,649
-34,236
-44,152
-53,52
-60,953
-65,795
-68,018
-67,728
-65,452
-61,814
-57,13
-51,997
-47,397
-43,882
-41,693
-40,917
-41,282
-42,52
-44,479
-46,821
-49,1
-51,023
-52,366
-53,014
-53,032
-52,467
-51,354
-49,792
-47,841
-45,52
-42,87
-39,909
-36,652
-33,15
-29,448
-25,592
-21,646
-17,669
-13,723
-9,861
-6,1
-2,429
1,173
4,744
8,288
11,781
15,22
18,602
21,927
25,211
28,455
31,654
34,822
37,983
41,16
44,379
47,649
50,964
54,323
57,72
61,161
64,67
68,259
71,94
75,726
79,626
83,652
87,821
92,139
96,6
101,2
105,934
110,795
115,784
120,895
126,119
131,445
136,858
142,343
147,885
153,464
159,06
164,652
170,215
175,727
181,168
186,517
191,751
196,847
201,782
206,533
211,077
215,391
219,453
223,239
226,728
229,897
232,728
235,202
237,3
239,006
240,306
241,186
241,636
241,645
241,206
240,315
238,967
237,161
234,9
232,184
229,02
225,415
221,379
216,921
212,056
206,799
201,164
195,17
188,836
182,182
175,23
168,002
160,521
152,812
144,9
136,812
128,575
120,216
111,762
103,242
94,683
86,113
77,558
69,045
60,599
52,247
44,013
35,918
27,987
20,239
12,693
5,368
-1,72
-8,556
-15,129
-21,425
-27,436
-33,154
-38,572
-43,685
-48,49
-52,984
-57,167
-61,041
-64,607
-67,869
-70,833
-73,505
-75,893
-78,006
-79,853
-81,446
-82,796
-83,916
-84,817
-85,513
-86,017
-86,345
-86,508
-86,522
-86,4
-86,157
-85,805
-85,359
-84,829
-84,23
-83,572
-82,866
-82,123
-81,352
-80,563
-79,764
-78,963
-78,168
-77,385
-76,62
-75,878
-75,163
-74,48
-73,829
-73,215
-72,639
-72,101
-71,601
-71,141
-70,72
-70,336
-69,99
-69,679
-69,401
-69,156
-68,941
-68,753
-68,59
-68,451
-68,332
-68,232
-68,149
-68,081
-68,025
-67,98
-67,945
-67,917
-67,894
-67,877
-67,862
-67,848
-67,836
-67,823
-67,81
-67,796
-67,781
-67,765
-67,749
-67,733
-67,718
-67,704
-67,691
-67,682
-67,675
-67,672
-67,675
-67,682
-67,697
-67,718
-67,747
-67,785
-67,832
-67,889
-67,955
-68,032
-68,12
-68,219
-68,33
-68,453
-68,589
-68,74
-68,905
-69,085
-69,282
-69,495
-69,724
-69,971
-70,234
-70,515
-70,811
-71,124
-71,453
-71,798
-72,157
-72,531
-72,919
-73,321
-73,737
-74,164
-74,604
-75,055
-75,516
-75,988
-76,468
-76,958
-77,455
-77,96
-78,471
-78,986
-79,504
-80,022
-80,539
-81,052
-81,558
-82,053
-82,534
-82,999
-83,443
-83,864
-84,259
-84,623
-84,954
-85,249
-85,504
-85,716
-85,882
-85,997
-86,058
-86,062
-86,005
-85,884
-85,695
-85,436
-85,102
-84,691
-84,199
-83,624
-82,962
-82,211
-81,369
-80,434
-79,406
-78,284
-77,07
-75,764
-74,369
-72,887
-71,323
-69,681
-67,965
-66,18
-64,332
-62,427
-60,474
-58,479
-56,45
-54,398
-52,332
-50,265
-48,209
-46,179
-44,189
-42,255
-40,394
-38,621
-36,951
-35,398
-33,977
-32,7
-31,581
-30,635
-29,874
-29,311
-28,959
-28,829
-28,93
-29,269
-29,846
-30,658
-31,703
-32,977
-34,483
-36,23
-38,224
-40,468
-42,964
-45,709
-48,698
-51,916
-55,339
-58,92
-62,612
-66,375
-70,171
-73,974
-77,756
-81,455
-85,004
-88,327
-91,352
-94,023
-96,309
-98,136
-99,443
-100,289
-100,742
-100,918
-100,979
-100,935
-100,767
-100,628
-100,674
-100,867
-101,286
-101,969
-102,816
-104,126
-106,117
-108,522
-111,097
-113,755
-116,154
-118,069
-119,489
-119,851
-118,935
-117,412
-115,862
-114,875
-115,247
-117,264
-120,898
-126,425
-133,297
-139,682
-143,49
-142,025
-132,312
-112,182
-79,532
-32,28
30,548
108,768
199,916
298,726
399,753
497,368
588,917
675,797
755,716
825,3
876,275
892,041
863,954
787,775
665,429
516,113
357,791
208,604
89,047
3,077
-51,306
-80,44
-99,6
-115,472
-128,525
-137,333
-136,067
-123,906
-104,745
-82,673
-62,225
-45,611
-33,236
-25,814
-23,37
-25,373
-31,03
-39,01
-48,184
-57,871
-67,111
-74,615
-79,635
-81,945
-81,716
-79,606
-76,189
-71,851
-67,255
-63,277
-60,467
-59,08
-59,121
-60,283
-62,286
-64,915
-67,817
-70,571
-72,87
-74,531
-75,489
-75,802
-75,52
-74,663
-73,279
-71,432
-69,184
-66,587
-63,681
-60,492
-57,057
-53,434
-49,688
-45,89
-42,103
-38,369
-34,715
-31,161
-27,714
-24,376
-21,146
-18,017
-14,972
-12,002
-9,095
-6,24
-3,427
-0,64
2,139
4,931
7,754
10,623
13,551
16,548
19,625
22,791
26,053
29,418
32,889
36,471
40,172
43,995
47,948
52,031
56,248
60,6
65,085
69,703
74,449
79,317
84,3
89,39
94,575
99,843
105,182
110,576
116,009
121,463
126,919
132,357
137,757
143,097
148,355
153,509
158,535
163,41
168,112
172,618
176,905
180,951
184,736
188,237
191,437
194,315
196,853
199,035
200,845
202,269
203,294
203,909
204,104
203,873
203,208
202,107
200,568
198,59
196,177
193,332
190,061
186,372
182,275
177,782
172,907
167,663
162,068
156,14
149,898
143,363
136,556
129,501
122,22
114,737
107,079
99,269
91,334
83,299
75,19
67,035
58,858
50,685
42,542
34,454
26,446
18,54
10,759
3,126
-4,339
-11,617
-18,69
-25,54
-32,152
-38,513
-44,61
-50,432
-55,969
-61,215
-66,163
-70,807
-75,146
-79,176
-82,899
-86,314
-89,425
-92,234
-94,747
-96,969
-98,907
-100,569
-101,963
-103,101
-103,991
-104,645
-105,074
-105,292
-105,311
-105,143
-104,801
-104,301
-103,654
-102,874
-101,975
-100,969
-99,87
-98,691
-97,442
-96,136
-94,784
-93,397
-91,985
-90,557
-89,122
-87,689
-86,264
-84,855
-83,469
-82,11
-80,785
-79,498
-78,253
-77,053
-75,902
-74,801
-73,752
-72,756
-71,814
-70,926
-70,092
-69,312
-68,584
-67,906
-67,278
-66,696
-66,16
-65,666
-65,212
-64,795
-64,412
-64,061
-63,737
-63,44
-63,165
-62,911
-62,674
-62,452
-62,243
-62,044
-61,853
-61,667
-61,486
-61,306
-61,126
-60,945
-60,761
-60,573
-60,381
-60,184
-59,98
-59,77
-59,553
-59,33
-59,1
-58,864
-58,622
-58,375
-58,124
-57,87
-57,615
-57,359
-57,105
-56,854
-56,608
-56,367
-56,134
-55,911
-55,698
-55,496
-55,308
-55,134
-54,976
-54,833
-54,708
-54,601
-54,512
-54,442
-54,391
-54,358
-54,343
-54,346
-54,366
-54,402
-54,453
-54,518
-54,594
-54,682
-54,778
-54,88
-54,986
-55,093
-55,198
-55,296
-55,384
-55,458
-55,513
-55,545
-55,55
-55,522
-55,458
-55,354
-55,204
-55,004
-54,751
-54,438
-54,064
-53,623
-53,111
-52,525
-51,862
-51,117
-50,29
-49,377
-48,377
-47,286
-46,104
-44,83
-43,461
-41,998
-40,44
-38,788
-37,041
-35,203
-33,276
-31,262
-29,167
-26,994
-24,749
-22,438
-20,069
-17,648
-15,184
-12,684
-10,158
-7,616
-5,067
-2,523
0,006
2,508
4,968
7,372
9,707
11,955
14,104
16,135
18,035
19,787
21,38
22,8
24,036
25,075
25,906
26,515
26,891
27,025
26,908
26,533
25,896
24,993
23,828
22,407
20,735
18,816
16,645
14,217
11,531
8,588
5,396
1,968
-1,683
-5,528
-9,528
-13,637
-17,809
-21,996
-26,162
-30,265
-34,26
-38,093
-41,693
-44,993
-47,929
-50,442
-52,496
-54,081
-55,193
-55,87
-56,173
-56,149
-55,892
-55,518
-55,079
-54,675
-54,423
-54,404
-54,806
-55,883
-57,739
-60,359
-63,743
-67,687
-71,687
-75,365
-78,292
-79,629
-79,852
-79,687
-78,339
-76,376
-72,686
-65,604
-58,699
-54,41
-56,115
-67,54
-83,589
-99,002
-107,78
-102,364
-83,512
-51,462
-6,308
48,736
115,694
195,052
285,693
388,817
501,216
617,326
728,814
822,593
886,522
912,012
896,628
844,789
763,31
658,682
537,155
405,021
272,333
153,673
59,856
-3,947
-40,466
-61,207
-74,494
-83,703
-88,743
-85,264
-72,497
-53,816
-33,477
-16,274
-4,976
-0,195
-1,654
-8,397
-19,196
-32,465
-46,385
-59,416
-70,145
-77,551
-81,321
-81,469
-78,364
-72,821
-65,732
-57,974
-50,504
-44,006
-38,78
-34,979
-32,572
-31,35
-31,096
-31,518
-32,232
-32,984
-33,667
-34,235
-34,698
-35,074
-35,338
-35,496
-35,593
-35,641
-35,624
-35,501
-35,196
-34,665
-33,909
-32,944
-31,787
-30,449
-28,913
-27,154
-25,174
-22,976
-20,565
-17,945
-15,106
-12,054
-8,815
-5,438
-1,98
1,518
5,035
8,565
12,103
15,639
19,155
22,637
26,086
29,505
32,896
36,261
39,598
42,913
46,229
49,577
52,994
56,507
60,133
63,883
67,765
71,787
75,955
80,27
84,722
89,303
94,009
98,832
103,767
108,803
113,924
119,111
124,341
129,595
134,853
140,095
145,299
150,445
155,512
160,481
165,335
170,055
174,618
179,004
183,189
187,153
190,873
194,329
197,499
200,364
202,905
205,105
206,948
208,422
209,511
210,207
210,497
210,375
209,835
208,872
207,485
205,672
203,436
200,781
197,713
194,24
190,37
186,116
181,489
176,505
171,178
165,526
159,566
153,318
146,802
140,039
133,053
125,866
118,502
110,987
103,345
95,602
87,783
79,913
72,017
64,119
56,243
48,414
40,655
32,988
25,434
18,014
10,748
3,653
-3,253
-9,955
-16,439
-22,692
-28,703
-34,463
-39,962
-45,194
-50,153
-54,834
-59,235
-63,353
-67,189
-70,742
-74,017
-77,015
-79,741
-82,201
-84,401
-86,348
-88,051
-89,516
-90,755
-91,776
-92,59
-93,207
-93,639
-93,897
-93,992
-93,937
-93,742
-93,42
-92,981
-92,437
-91,797
-91,073
-90,274
-89,409
-88,488
-87,519
-86,512
-85,473
-84,41
-83,33
-82,239
-81,142
-80,046
-78,954
-77,871
-76,8
-75,746
-74,71
-73,697
-72,708
-71,745
-70,811
-69,906
-69,032
-68,19
-67,38
-66,602
-65,856
-65,144
-64,463
-63,815
-63,198
-62,614
-62,062
-61,542
-61,054
-60,596
-60,17
-59,775
-59,41
-59,076
-58,773
-58,5
-58,258
-58,047
-57,868
-57,721
-57,606
-57,524
-57,475
-57,459
-57,475
-57,525
-57,609
-57,725
-57,874
-58,057
-58,273
-58,523
-58,806
-59,122
-59,47
-59,851
-60,264
-60,707
-61,181
-61,683
-62,215
-62,774
-63,359
-63,971
-64,607
-65,266
-65,947
-66,649
-67,369
-68,106
-68,857
-69,62
-70,394
-71,176
-71,964
-72,757
-73,551
-74,345
-75,136
-75,924
-76,705
-77,477
-78,239
-78,988
-79,722
-80,439
-81,138
-81,817
-82,474
-83,108
-83,717
-84,3
-84,855
-85,381
-85,875
-86,337
-86,764
-87,154
-87,507
-87,821
-88,093
-88,324
-88,51
-88,653
-88,749
-88,798
-88,799
-88,751
-88,651
-88,5
-88,295
-88,036
-87,721
-87,349
-86,918
-86,427
-85,875
-85,261
-84,583
-83,84
-83,03
-82,153
-81,206
-80,19
-79,104
-77,947
-76,719
-75,421
-74,054
-72,618
-71,117
-69,551
-67,923
-66,238
-64,498
-62,707
-60,87
-58,992
-57,079
-55,138
-53,175
-51,198
-49,216
-47,239
-45,277
-43,343
-41,45
-39,612
-37,843
-36,159
-34,574
-33,105
-31,765
-30,566
-29,522
-28,648
-27,956
-27,461
-27,176
-27,113
-27,283
-27,696
-28,361
-29,283
-30,462
-31,895
-33,581
-35,521
-37,72
-40,187
-42,92
-45,92
-49,183
-52,697
-56,445
-60,403
-64,527
-68,773
-73,093
-77,441
-81,777
-86,063
-90,25
-94,283
-98,096
-101,617
-104,787
-107,55
-109,856
-111,682
-113,02
-113,893
-114,369
-114,515
-114,405
-114,134
-113,788
-113,468
-113,302
-113,402
-113,904
-115,007
-116,844
-119,472
-122,837
-126,663
-130,579
-134,202
-137,051
-138,553
-138,245
-135,841
-131,482
-125,904
-120,013
-114,788
-111,089
-109,589
-111,04
-115,636
-122,389
-129,555
-133,737
-130,866
-118,784
-94,902
-58,518
-11,067
49,514
124,782
216,998
329,378
457,222
589,07
709,946
804,762
866,394
899,561
913,468
911,835
891,37
839,122
740,91
599,722
432,741
266,722
132,558
42,557
-8,881
-33,78
-49,825
-64,568
-72,9
-72,382
-63,017
-49,192
-42,376
-47,311
-60,246
-76,566
-89,167
-95,306
-98,737
-101,478
-104,647
-108,036
-109,141
-107,168
-102,705
-96,395
-89,286
-82,137
-75,332
-69,347
-64,497
-60,801
-58,147
-56,382
-55,404
-55,135
-55,464
-56,244
-57,327
-58,63
-60,116
-61,741
-63,416
-65,021
-66,451
-67,648
-68,596
-69,287
-69,702
-69,801
-69,539
-68,907
-67,925
-66,609
-64,978
-63,024
-60,723
-58,078
-55,123
-51,898
-48,44
-44,768
-40,884
-36,808
-32,577
-28,242
-23,861
-19,466
-15,07
-10,689
-6,338
-2,04
2,175
6,297
10,335
14,297
18,192
22,024
25,791
29,51
33,208
36,918
40,673
44,498
48,406
52,413
56,533
60,777
65,156
69,672
74,319
79,094
83,995
89,019
94,163
99,419
104,772
110,208
115,71
121,263
126,849
132,453
138,055
143,638
149,184
154,676
160,097
165,429
170,648
175,735
180,665
185,416
189,965
194,288
198,362
202,165
205,674
208,87
211,734
214,246
216,389
218,149
219,51
220,46
220,987
221,082
220,739
219,952
218,718
217,036
214,908
212,336
209,325
205,883
202,018
197,741
193,064
188,001
182,567
176,781
170,662
164,23
157,508
150,519
143,288
135,84
128,202
120,402
112,465
104,421
96,297
88,12
79,918
71,719
63,548
55,433
47,397
39,466
31,663
24,009
16,526
9,232
2,145
-4,718
-11,343
-17,717
-23,828
-29,667
-35,225
-40,496
-45,476
-50,16
-54,549
-58,642
-62,441
-65,949
-69,172
-72,115
-74,786
-77,193
-79,348
-81,259
-82,939
-84,399
-85,653
-86,713
-87,594
-88,308
-88,87
-89,293
-89,591
-89,777
-89,865
-89,868
-89,798
-89,666
-89,485
-89,264
-89,014
-88,743
-88,462
-88,176
-87,894
-87,622
-87,365
-87,129
-86,916
-86,732
-86,577
-86,454
-86,364
-86,307
-86,284
-86,292
-86,331
-86,4
-86,497
-86,618
-86,763
-86,928
-87,11
-87,308
-87,517
-87,736
-87,962
-88,191
-88,423
-88,654
-88,883
-89,107
-89,326
-89,538
-89,742
-89,936
-90,122
-90,297
-90,461
-90,615
-90,759
-90,892
-91,016
-91,132
-91,24
-91,342
-91,439
-91,534
-91,627
-91,72
-91,816
-91,916
-92,022
-92,135
-92,257
-92,391
-92,536
-92,695
-92,869
-93,059
-93,265
-93,488
-93,729
-93,988
-94,265
-94,559
-94,871
-95,2
-95,546
-95,908
-96,286
-96,679
-97,087
-97,508
-97,943
-98,39
-98,848
-99,317
-99,793
-100,278
-100,768
-101,263
-101,761
-102,26
-102,76
-103,258
-103,753
-104,243
-104,728
-105,205
-105,672
-106,13
-106,576
-107,008
-107,427
-107,831
-108,219
-108,59
-108,942
-109,275
-109,587
-109,878
-110,145
-110,388
-110,604
-110,791
-110,948
-111,072
-111,162
-111,216
-111,23
-111,204
-111,134
-111,019
-110,858
-110,647
-110,385
-110,07
-109,701
-109,275
-108,791
-108,247
-107,642
-106,972
-106,238
-105,437
-104,568
-103,63
-102,622
-101,542
-100,392
-99,168
-97,873
-96,506
-95,067
-93,558
-91,98
-90,336
-88,63
-86,864
-85,043
-83,173
-81,258
-79,303
-77,315
-75,3
-73,265
-71,218
-69,167
-67,118
-65,083
-63,07
-61,094
-59,167
-57,302
-55,513
-53,811
-52,213
-50,734
-49,389
-48,19
-47,151
-46,282
-45,596
-45,108
-44,828
-44,768
-44,932
-45,325
-45,95
-46,812
-47,915
-49,255
-50,827
-52,622
-54,633
-56,865
-59,32
-61,999
-64,897
-68,002
-71,299
-74,777
-78,416
-82,185
-86,044
-89,945
-93,834
-97,663
-101,39
-104,973
-108,381
-111,56
-114,446
-116,964
-119,041
-120,628
-121,712
-122,308
-122,42
-122,035
-121,212
-120,131
-119,095
-118,424
-118,302
-118,699
-119,578
-121,116
-123,402
-126,284
-129,223
-131,338
-132,036
-131,3
-129,278
-125,85
-120,942
-114,722
-108,052
-102,696
-100,094
-100,876
-105,242
-113,113
-124,159
-138,009
-153,132
-166,281
-174,393
-173,692
-160,469
-133,519
-91,241
-33,995
35,139
115,712
206,109
305,292
415,18
532,431
651,163
763,641
855,688
916,706
941,184
924,127
869,109
780,376
658,979
515,649
362,289
214,342
93,978
10,024
-37,362
-53,855
-54,739
-49,032
-41,451
-37,974
-40,184
-49,661
-66,312
-83,909
-96,778
-102,034
-100,11
-95,958
-93,165
-92,327
-92,551
-91,747
-89,454
-86,594
-83,677
-80,96
-78,532
-76,377
-74,703
-73,647
-72,838
-71,907
-70,894
-70,135
-69,94
-70,432
-71,528
-73,09
-75,162
-77,772
-80,733
-83,706
-86,342
-88,393
-89,769
-90,468
-90,466
-89,748
-88,343
-86,321
-83,786
-80,832
-77,524
-73,904
-70,019
-65,927
-61,702
-57,421
-53,155
-48,965
-44,89
-40,953
-37,169
-33,538
-30,057
-26,715
-23,495
-20,375
-17,339
-14,374
-11,468
-8,61
-5,785
-2,97
-0,146
2,705
5,599
8,549
11,567
14,665
17,853
21,138
24,529
28,03
31,65
35,396
39,275
43,295
47,461
51,774
56,236
60,847
65,606
70,507
75,545
80,71
85,994
91,384
96,868
102,431
108,056
113,727
119,425
125,129
130,82
136,474
142,069
147,583
152,99
158,268
163,393
168,339
173,083
177,601
181,869
185,866
189,568
192,954
196,005
198,7
201,023
202,957
204,487
205,602
206,29
206,543
206,353
205,716
204,629
203,092
201,107
198,677
195,807
192,506
188,783
184,65
180,12
175,208
169,93
164,305
158,353
152,094
145,55
138,745
131,701
124,445
117,002
109,398
101,659
93,813
85,886
77,906
69,899
61,892
53,911
45,981
38,128
30,375
22,744
15,259
7,939
0,805
-6,127
-12,839
-19,315
-25,543
-31,511
-37,206
-42,622
-47,75
-52,584
-57,12
-61,355
-65,287
-68,917
-72,245
-75,275
-78,009
-80,454
-82,614
-84,498
-86,113
-87,468
-88,574
-89,44
-90,077
-90,499
-90,715
-90,739
-90,583
-90,261
-89,784
-89,165
-88,418
-87,554
-86,587
-85,527
-84,388
-83,179
-81,911
-80,595
-79,24
-77,856
-76,45
-75,031
-73,605
-72,181
-70,763
-69,358
-67,971
-66,607
-65,268
-63,96
-62,684
-61,442
-60,238
-59,073
-57,947
-56,861
-55,817
-54,814
-53,852
-52,931
-52,05
-51,208
-50,405
-49,638
-48,907
-48,21
-47,545
-46,912
-46,307
-45,731
-45,18
-44,654
-44,151
-43,67
-43,209
-42,766
-42,341
-41,931
-41,536
-41,155
-40,786
-40,428
-40,081
-39,743
-39,413
-39,09
-38,774
-38,463
-38,156
-37,852
-37,55
-37,25
-36,949
-36,648
-36,346
-36,041
-35,735
-35,426
-35,114
-34,799
-34,481
-34,16
-33,835
-33,508
-33,178
-32,845
-32,511
-32,175
-31,838
-31,499
-31,16
-30,82
-30,48
-30,14
-29,8
-29,46
-29,12
-28,782
-28,445
-28,11
-27,777
-27,447
-27,121
-26,797
-26,478
-26,163
-25,851
-25,543
-25,238
-24,935
-24,633
-24,331
-24,027
-23,718
-23,403
-23,078
-22,74
-22,385
-22,01
-21,612
-21,185
-20,727
-20,233
-19,7
-19,123
-18,499
-17,824
-17,093
-16,302
-15,448
-14,525
-13,529
-12,456
-11,303
-10,064
-8,738
-7,32
-5,806
-4,194
-2,481
-0,666
1,254
3,279
5,41
7,645
9,983
12,421
14,955
17,581
20,293
23,085
25,949
28,88
31,868
34,905
37,982
41,089
44,216
47,352
50,485
53,602
56,686
59,723
62,697
65,591
68,39
71,075
73,629
76,036
78,283
80,357
82,242
83,926
85,394
86,634
87,637
88,398
88,909
89,167
89,167
88,911
88,404
87,653
86,665
85,436
83,959
82,23
80,247
78,017
75,549
72,85
69,934
66,822
63,55
60,165
56,712
53,236
49,776
46,367
43,055
39,905
36,98
34,364
32,124
30,294
28,911
27,994
27,529
27,542
28,01
28,77
29,67
30,536
31,161
31,536
31,628
31,15
29,908
27,967
25,467
22,903
20,829
19,243
18,21
18,168
19,363
21,81
25,175
28,208
29,619
28,928
25,676
19,414
10,083
-2,148
-16,182
-29,333
-38,69
-41,729
-35,676
-18,08
13,197
60,273
123
198,428
283,558
374,768
469,934
569,184
669,385
765,016
846,63
902,507
925,431
910,901
860,855
779,64
669,431
539,055
398,041
260,599
147,234
66,13
19,511
2,02
-1,853
2,197
10,043
17,057
24,69
27,809
24,166
18,527
13,278
13,654
21,649
32,916
44,965
55,544
63,744
71,313
78,398
84,094
87,809
88,789
87,203
84,106
80,23
76,211
72,738
70,263
69,064
69,231
70,393
71,865
73,181
74,005
74,146
73,647
72,598
71,148
69,591
68,281
67,444
67,206
67,595
68,531
69,945
71,769
73,913
76,286
78,818
81,462
84,18
86,944
89,713
92,435
95,069
97,589
99,981
102,244
104,388
106,427
108,381
110,277
112,135
113,969
115,792
117,613
119,444
121,302
123,201
125,161
127,197
129,327
131,563
133,917
136,397
139,006
141,749
144,627
147,642
150,797
154,093
157,531
161,112
164,833
168,691
172,679
176,789
181,009
185,327
189,727
194,192
198,705
203,245
207,79
212,32
216,81
221,236
225,572
229,794
233,873
237,783
241,497
244,988
248,227
251,187
253,843
256,168
258,136
259,725
260,909
261,669
261,982
261,83
261,194
260,06
258,411
256,237
253,527
250,273
246,47
242,114
237,206
231,746
225,74
219,194
212,116
204,517
196,411
187,811
178,736
169,202
159,232
148,848
138,072
126,932
115,453
103,664
91,593
79,269
66,724
53,989
41,094
28,071
14,954
1,773
-11,439
-24,65
-37,829
-50,945
-63,967
-76,867
-89,615
-102,186
-114,553
-126,691
-138,578
-150,19
-161,508
-172,512
-183,186
-193,511
-203,476
-213,066
-222,272
-231,084
-239,494
-247,497
-255,089
-262,266
-269,029
-275,377
-281,312
-286,838
-291,958
-296,678
-301,005
-304,947
-308,513
-311,712
-314,556
-317,054
-319,219
-321,062
-322,597
-323,834
-324,789
-325,474
-325,901
-326,086
-326,041
-325,781
-325,319
-324,669
-323,843
-322,856
-321,719
-320,445
-319,047
-317,535
-315,921
-314,215
-312,428
-310,569
-308,649
-306,675
-304,657
-302,602
-300,518
-298,411
-296,288
-294,157
-292,022
-289,889
-287,766
-285,656
-283,565
-281,499
-279,461
-277,457
-275,491
-273,566
-271,685
-269,853
-268,07
-266,341
-264,666
-263,049
-261,49
-259,992
-258,555
-257,181
-255,871
-254,624
-253,442
-252,325
-251,272
-250,285
-249,362
-248,503
-247,709
-246,979
-246,312
-245,707
-245,162
-244,676
-244,246
-243,871
-243,547
-243,271
-243,041
-242,853
-242,704
-242,59
-242,507
-242,453
-242,424
-242,416
-242,426
-242,45
-242,485
-242,528
-242,575
-242,623
-242,67
-242,712
-242,746
-242,77
-242,781
-242,775
-242,75
-242,703
-242,631
-242,531
-242,4
-242,236
-242,038
-241,802
-241,529
-241,216
-240,862
-240,468
-240,032
-239,555
-239,035
-238,473
-237,87
-237,225
-236,538
-235,81
-235,042
-234,232
-233,382
-232,492
-231,56
-230,587
-229,573
-228,517
-227,419
-226,278
-225,093
-223,866
-222,595
-221,281
-219,923
-218,522
-217,077
-215,587
-214,052
-212,47
-210,841
-209,162
-207,433
-205,651
-203,815
-201,922
-199,972
-197,96
-195,886
-193,747
-191,541
-189,266
-186,92
-184,502
-182,012
-179,447
-176,81
-174,099
-171,317
-168,465
-165,544
-162,558
-159,508
-156,397
-153,229
-150,008
-146,738
-143,424
-140,071
-136,689
-133,285
-129,872
-126,459
-123,06
-119,687
-116,354
-113,074
-109,861
-106,725
-103,677
-100,729
-97,892
-95,182
-92,611
-90,19
-87,931
-85,844
-83,938
-82,221
-80,7
-79,371
-78,234
-77,29
-76,545
-76,015
-75,713
-75,644
-75,812
-76,212
-76,836
-77,673
-78,697
-79,86
-81,114
-82,406
-83,688
-84,924
-86,069
-87,072
-87,869
-88,376
-88,522
-88,252
-87,521
-86,3
-84,584
-82,38
-79,736
-76,739
-73,499
-70,146
-66,816
-63,633
-60,743
-58,275
-56,398
-55,349
-55,274
-56,218
-58,104
-60,625
-63,434
-66,236
-68,589
-69,91
-69,782
-67,896
-64,338
-59,862
-55,223
-51,066
-48,106
-46,854
-47,564
-50,269
-54,138
-57,109
-56,756
-50,443
-35,462
-9,458
29,827
84,28
154,857
240,054
336,009
438,463
542,552
645,163
746,203
843,185
930,599
1001,059
1042,615
1045,123
1006,335
926,721
812,088
675,912
529,844
389,193
272,86
188,403
137,787
115,33
104,628
96,188
86,544
75,679
69,671
70,317
74,808
79,949
81,901
79,366
73,495
65,645
57,271
49,576
43,509
40,01
39,468
41,686
46,171
52,23
59,234
66,638
73,838
80,297
85,744
90,144
93,607
96,337
98,501
100,212
101,603
102,803
103,889
104,924
105,943
106,958
107,985
109,063
110,235
111,522
112,927
114,431
116,006
117,627
119,269
120,922
122,582
124,27
126,025
127,884
129,879
132,044
134,414
137,017
139,867
142,98
146,362
150,023
153,976
158,226
162,773
167,605
172,699
178,016
183,499
189,1
194,78
200,503
206,236
211,955
217,639
223,282
228,888
234,461
240,003
245,519
251,013
256,499
261,99
267,51
273,085
278,734
284,47
290,302
296,234
302,267
308,397
314,614
320,9
327,236
333,607
339,994
346,382
352,749
359,074
365,332
371,5
377,553
383,47
389,226
394,8
400,169
405,311
410,207
414,837
419,181
423,219
426,929
430,292
433,286
435,894
438,097
439,878
441,221
442,114
442,544
442,503
441,981
440,972
439,473
437,481
434,995
432,018
428,552
424,603
420,178
415,286
409,938
404,145
397,922
391,282
384,244
376,824
369,041
360,916
352,471
343,728
334,711
325,446
315,959
306,275
296,423
286,431
276,326
266,138
255,894
245,623
235,353
225,11
214,922
204,815
194,813
184,94
175,22
165,675
156,325
147,19
138,288
129,636
121,25
113,144
105,331
97,822
90,626
83,753
77,209
70,999
65,127
59,595
54,404
49,552
45,036
40,853
36,997
33,462
30,239
27,32
24,695
22,353
20,284
18,474
16,913
15,587
14,484
13,59
12,892
12,378
12,035
11,85
11,811
11,905
12,121
12,447
12,873
13,388
13,983
14,647
15,375
16,156
16,986
17,858
18,767
19,709
20,681
21,68
22,704
23,752
24,824
25,92
27,04
28,184
29,356
30,554
31,782
33,04
34,329
35,653
37,011
38,404
39,835
41,303
42,809
44,353
45,936
47,557
49,214
50,908
52,635
54,394
56,181
57,992
59,824
61,67
63,525
65,383
67,236
69,076
70,896
72,686
74,437
76,139
77,783
79,359
80,856
82,265
83,575
84,778
85,862
86,82
87,641
88,316
88,838
89,196
89,384
89,394
89,218
88,849
88,281
87,509
86,526
85,329
83,913
82,275
80,415
78,33
76,021
73,489
70,735
67,763
64,576
61,178
57,575
53,77
49,771
45,586
41,224
36,692
31,999
27,155
22,168
17,051
11,811
6,458
1,001
-4,552
-10,19
-15,901
-21,672
-27,488
-33,339
-39,217
-45,115
-51,022
-56,93
-62,829
-68,709
-74,566
-80,389
-86,167
-91,885
-97,529
-103,087
-108,557
-113,936
-119,227
-124,421
-129,496
-134,43
-139,197
-143,788
-148,219
-152,49
-156,595
-160,529
-164,266
-167,824
-171,284
-174,62
-177,718
-180,481
-182,768
-184,594
-186,194
-187,657
-188,916
-190,105
-191,466
-193,279
-195,997
-199,633
-203,672
-207,848
-212,104
-216,202
-219,917
-222,889
-224,463
-224,613
-223,988
-222,985
-221,848
-220,861
-220,135
-219,971
-220,965
-223,196
-226,232
-229,798
-233,66
-237,668
-241,885
-246,217
-250,39
-254,362
-258,301
-262,325
-266,567
-271,076
-275,765
-280,61
-285,649
-290,875
-296,249
-301,729
-307,244
-312,744
-318,223
-323,664
-329,051
-334,373
-339,588
-344,646
-349,505
-354,109
-358,401
-362,364
-365,965
-369,154
-371,971
-374,503
-376,91
-379,467
-382,413
-385,893
-390,019
-394,846
-400,258
-406,043
-411,817
-416,965
-420,894
-423,064
-423,123
-420,981
-416,835
-411,109
-404,426
-397,687
-391,944
-388,401
-388,003
-391,274
-398,298
-408,693
-421,822
-436,581
-451,253
-463,494
-470,75
-470,486
-460,332
-438,162
-402,07
-350,914
-284,465
-203,522
-110
-6,742
101,67
209,008
308,954
396,239
468,796
526,551
568,782
593,025
591,627
556,74
483,503
370,587
228,885
74,985
-72,162
-191,36
-274,402
-323,117
-346,212
-359,625
-371,93
-384,361
-394,514
-396,663
-389,929
-377,813
-364,471
-354,175
-348,463
-346,898
-349,195
-354,556
-361,845
-369,876
-377,047
-382,015
-384,345
-383,921
-380,55
-374,394
-365,927
-355,792
-345,026
-334,651
-325,144
-316,79
-309,883
-304,5
-300,66
-298,332
-297,19
-296,839
-297,058
-297,663
-298,509
-299,519
-300,545
-301,453
-302,205
-302,766
-303,095
-303,139
-302,783
-301,927
-300,517
-298,495
-295,842
-292,561
-288,645
-284,119
-279,026
-273,412
-267,344
-260,88
-254,057
-246,922
-239,526
-231,921
-224,192
-216,402
-208,591
-200,809
-193,089
-185,45
-177,921
-170,509
-163,206
-156,006
-148,9
-141,874
-134,928
-128,051
-121,226
-114,437
-107,657
-100,865
-94,054
-87,214
-80,339
-73,43
-66,486
-59,511
-52,523
-45,53
-38,545
-31,579
-24,641
-17,743
-10,901
-4,128
2,559
9,144
15,615
21,957
28,157
34,203
40,081
45,781
51,293
56,606
61,708
66,586
71,228
75,621
79,756
83,619
87,2
90,49
93,479
96,16
98,526
100,571
102,291
103,681
104,738
105,46
105,847
105,899
105,617
105,004
104,064
102,801
101,22
99,327
97,129
94,632
91,845
88,777
85,436
81,832
77,977
73,881
69,557
65,018
60,277
55,348
50,244
44,981
39,573
34,035
28,382
22,63
16,793
10,887
4,928
-1,071
-7,094
-13,127
-19,156
-25,167
-31,146
-37,081
-42,958
-48,765
-54,489
-60,119
-65,643
-71,049
-76,326
-81,463
-86,451
-91,279
-95,939
-100,423
-104,723
-108,832
-112,743
-116,451
-119,951
-123,239
-126,311
-129,164
-131,796
-134,205
-136,391
-138,353
-140,092
-141,608
-142,903
-143,978
-144,836
-145,479
-145,909
-146,132
-146,151
-145,971
-145,597
-145,036
-144,295
-143,381
-142,301
-141,064
-139,678
-138,152
-136,496
-134,719
-132,83
-130,84
-128,757
-126,593
-124,359
-122,065
-119,717
-117,323
-114,891
-112,429
-109,95
-107,461
-104,96
-102,462
-99,988
-97,558
-95,194
-92,902
-90,663
-88,479
-86,381
-84,354
-82,344
-80,31
-78,207
-76,03
-73,853
-71,695
-69,479
-67,285
-65,391
-63,848
-62,572
-61,597
-60,611
-60,194
-62,072
-65,816
-69,852
-71,509
-65,84
-53,281
-38,75
-27,198
-25,647
-34,348
-46,688
-57,568
-61,422
-57,426
-50,528
-43,715
-39,081
-37,193
-36,022
-34,684
-33,237
-31,614
-30,123
-28,831
-27,467
-25,951
-24,333
-22,606
-20,759
-18,807
-16,763
-14,656
-12,537
-10,423
-8,296
-6,153
-4
-1,842
0,317
2,474
4,631
6,788
8,938
11,078
13,204
15,315
17,409
19,485
21,543
23,582
25,602
27,603
29,587
31,554
33,507
35,447
37,376
39,297
41,213
43,128
45,043
46,964
48,892
50,833
52,788
54,762
56,757
58,778
60,827
62,907
65,019
67,167
69,352
71,574
73,834
76,131
78,465
80,834
83,237
85,67
88,13
90,614
93,117
95,633
98,156
100,679
103,193
105,691
108,163
110,6
112,989
115,32
117,579
119,753
121,827
123,784
125,608
127,282
128,79
130,118
131,254
132,186
132,903
133,395
133,655
133,674
133,445
132,959
132,214
131,209
129,954
128,457
126,733
124,795
122,647
120,293
117,741
114,993
112,052
108,924
105,616
102,147
98,559
94,891
91,184
87,47
83,75
80,04
76,367
72,763
69,29
66,015
62,986
60,289
58,032
56,244
54,895
53,857
52,869
51,732
50,319
48,456
46,032
43,14
40,04
37,244
35,385
34,851
35,859
38,649
43,329
49,698
57,177
64,761
71,442
76,585
79,762
80,482
78,21
72,675
64,16
53,493
41,519
28,937
16,515
5,412
-2,598
-5,518
-1,58
10,818
33,451
67,966
115,514
176,636
250,911
336,996
432,952
534,919
636,473
731,163
814,427
885,653
948,277
1004,39
1048,697
1068,008
1046,024
970,471
844,805
688,864
529,599
394,721
297,889
235,041
193,529
157,46
119,661
85,903
66,747
69,073
89,349
113,193
123,906
113,688
86,379
54,054
29,33
17,797
17,855
24,077
32,122
40,558
49,91
61,674
75,911
91,316
106,23
118,759
127,84
133,578
136,553
137,274
136,173
133,587
129,973
126,053
122,345
118,869
115,282
111,326
106,973
102,35
97,642
92,886
88,082
83,4
79,16
75,634
73,001
71,32
70,539
70,636
71,602
73,37
75,845
78,913
82,436
86,298
90,397
94,616
98,87
103,098
107,241
111,264
115,133
118,825
122,338
125,689
128,889
131,948
134,876
137,683
140,399
143,062
145,709
148,381
151,107
153,908
156,805
159,817
162,953
166,223
169,625
173,153
176,806
180,584
184,487
188,518
192,671
196,938
201,311
205,781
210,337
214,968
219,661
224,402
229,176
233,971
238,773
243,567
248,336
253,063
257,728
262,31
266,787
271,138
275,34
279,37
283,204
286,82
290,197
293,313
296,147
298,68
300,891
302,764
304,28
305,424
306,18
306,536
306,479
306
305,088
303,739
301,946
299,707
297,021
293,89
290,315
286,3
281,853
276,982
271,695
266,006
259,926
253,47
246,656
239,501
232,025
224,248
216,192
207,88
199,334
190,579
181,639
172,539
163,304
153,959
144,529
135,04
125,516
115,984
106,466
96,987
87,57
78,238
69,011
59,91
50,956
42,165
33,557
25,146
16,948
8,977
1,245
-6,237
-13,459
-20,413
-27,093
-33,493
-39,608
-45,438
-50,981
-56,236
-61,205
-65,891
-70,298
-74,429
-78,289
-81,887
-85,227
-88,318
-91,169
-93,788
-96,184
-98,368
-100,348
-102,136
-103,741
-105,173
-106,444
-107,564
-108,542
-109,39
-110,117
-110,734
-111,25
-111,675
-112,018
-112,288
-112,492
-112,639
-112,735
-112,788
-112,804
-112,787
-112,744
-112,68
-112,598
-112,502
-112,396
-112,282
-112,165
-112,045
-111,925
-111,807
-111,692
-111,582
-111,477
-111,38
-111,29
-111,209
-111,138
-111,076
-111,024
-110,983
-110,952
-110,931
-110,919
-110,917
-110,924
-110,938
-110,961
-110,991
-111,029
-111,073
-111,124
-111,182
-111,245
-111,315
-111,392
-111,474
-111,563
-111,659
-111,761
-111,871
-111,988
-112,114
-112,247
-112,389
-112,539
-112,697
-112,863
-113,037
-113,217
-113,404
-113,596
-113,794
-113,997
-114,205
-114,417
-114,632
-114,85
-115,07
-115,291
-115,512
-115,732
-115,949
-116,163
-116,372
-116,573
-116,766
-116,948
-117,115
-117,267
-117,399
-117,508
-117,591
-117,643
-117,662
-117,642
-117,581
-117,474
-117,319
-117,11
-116,845
-116,52
-116,132
-115,678
-115,153
-114,554
-113,878
-113,123
-112,285
-111,362
-110,353
-109,255
-108,067
-106,788
-105,417
-103,954
-102,398
-100,751
-99,014
-97,187
-95,274
-93,279
-91,205
-89,057
-86,841
-84,564
-82,234
-79,858
-77,445
-75,003
-72,542
-70,072
-67,605
-65,15
-62,72
-60,328
-57,988
-55,715
-53,524
-51,431
-49,452
-47,604
-45,9
-44,357
-42,987
-41,801
-40,809
-40,024
-39,456
-39,118
-39,019
-39,168
-39,572
-40,236
-41,164
-42,358
-43,809
-45,512
-47,456
-49,637
-52,057
-54,72
-57,622
-60,76
-64,123
-67,694
-71,455
-75,374
-79,405
-83,497
-87,599
-91,66
-95,644
-99,511
-103,214
-106,701
-109,897
-112,732
-115,149
-117,092
-118,519
-119,413
-119,764
-119,608
-119,026
-118,088
-116,879
-115,501
-114,032
-112,596
-111,331
-110,341
-109,78
-109,851
-110,675
-112,302
-114,625
-117,28
-119,823
-121,87
-122,946
-122,515
-120,179
-115,775
-109,69
-102,941
-96,789
-92,252
-89,95
-90,607
-94,769
-102,135
-111,442
-119,383
-120,925
-112,88
-93,54
-62,629
-22,272
28,868
93,866
175,03
275,363
392,195
518,334
644,886
760,15
852,976
915,21
941,593
929,031
880
797,824
684,664
549,977
403,731
260,099
140,198
54,052
3,93
-16,47
-25,209
-33,205
-44,018
-56,749
-64,045
-63,342
-57,171
-48,614
-41,678
-37,975
-36,917
-38,287
-41,849
-47,106
-53,513
-60,339
-67,02
-73,335
-78,98
-83,247
-85,41
-85,194
-82,702
-78,299
-72,402
-65,272
-57,294
-49,162
-41,517
-34,748
-29,046
-24,396
-20,705
-17,943
-16,013
-14,67
-13,71
-13,005
-12,458
-12,057
-11,809
-11,679
-11,657
-11,756
-11,942
-12,168
-12,372
-12,447
-12,313
-11,907
-11,152
-10,001
-8,427
-6,407
-3,946
-1,066
2,222
5,899
9,939
14,324
19,015
23,964
29,12
34,411
39,777
45,169
50,532
55,831
61,042
66,145
71,134
76,018
80,802
85,494
90,11
94,656
99,147
103,604
108,048
112,509
117,01
121,564
126,184
130,876
135,639
140,472
145,365
150,303
155,269
160,247
165,22
170,172
175,086
179,94
184,712
189,38
193,92
198,311
202,533
206,563
210,382
213,969
217,305
220,372
223,153
225,628
227,778
229,585
231,029
232,096
232,768
233,03
232,869
232,274
231,233
229,739
227,786
225,368
222,483
219,129
215,307
211,021
206,274
201,073
195,428
189,347
182,843
175,929
168,621
160,934
152,885
144,495
135,782
126,769
117,477
107,93
98,151
88,166
78
67,679
57,228
46,675
36,046
25,367
14,665
3,965
-6,707
-17,326
-27,869
-38,312
-48,633
-58,811
-68,827
-78,661
-88,296
-97,716
-106,906
-115,854
-124,546
-132,973
-141,126
-148,996
-156,578
-163,866
-170,857
-177,548
-183,938
-190,028
-195,819
-201,313
-206,515
-211,429
-216,06
-220,417
-224,506
-228,336
-231,915
-235,255
-238,364
-241,254
-243,935
-246,418
-248,714
-250,835
-252,791
-254,594
-256,252
-257,777
-259,177
-260,462
-261,641
-262,72
-263,709
-264,613
-265,44
-266,195
-266,883
-267,511
-268,082
-268,599
-269,066
-269,486
-269,86
-270,19
-270,476
-270,719
-270,92
-271,076
-271,188
-271,254
-271,274
-271,244
-271,163
-271,029
-270,839
-270,593
-270,287
-269,921
-269,492
-269,001
-268,446
-267,828
-267,146
-266,402
-265,596
-264,729
-263,803
-262,82
-261,781
-260,689
-259,546
-258,355
-257,12
-255,844
-254,53
-253,182
-251,805
-250,403
-248,98
-247,539
-246,086
-244,625
-243,16
-241,695
-240,235
-238,783
-237,344
-235,921
-234,516
-233,133
-231,771
-230,434
-229,12
-227,829
-226,56
-225,312
-224,083
-222,869
-221,668
-220,476
-219,289
-218,103
-216,913
-215,713
-214,498
-213,262
-211,998
-210,7
-209,361
-207,973
-206,531
-205,028
-203,456
-201,808
-200,08
-198,262
-196,351
-194,339
-192,221
-189,993
-187,649
-185,187
-182,604
-179,899
-177,072
-174,123
-171,053
-167,865
-164,563
-161,152
-157,637
-154,023
-150,319
-146,533
-142,674
-138,752
-134,779
-130,767
-126,732
-122,689
-118,654
-114,646
-110,681
-106,78
-102,961
-99,243
-95,644
-92,179
-88,865
-85,719
-82,758
-79,998
-77,457
-75,15
-73,091
-71,293
-69,769
-68,527
-67,57
-66,898
-66,513
-66,415
-66,614
-67,116
-67,925
-69,042
-70,466
-72,187
-74,187
-76,44
-78,899
-81,514
-84,234
-87,007
-89,79
-92,538
-95,201
-97,725
-100,045
-102,096
-103,819
-105,162
-106,075
-106,535
-106,549
-106,159
-105,454
-104,534
-103,482
-102,4
-101,395
-100,585
-100,109
-100,1
-100,666
-101,956
-104,152
-107,366
-111,602
-116,667
-122,114
-127,437
-132,135
-135,631
-137,284
-136,598
-133,368
-127,968
-121,35
-114,594
-108,671
-104,408
-102,551
-103,548
-107,137
-111,824
-115,08
-113,908
-105,035
-85,411
-52,14
-2,407
64,599
146,878
241,575
344,571
452,92
566,261
681,778
794,199
894,336
969,46
1008,093
1001,394
947,184
847,969
711,63
554,069
391,972
244,76
129,509
50,367
4,477
-18,785
-33,906
-46,872
-58,425
-65,803
-64,131
-53,811
-38,634
-22,622
-9,835
-1,885
1,472
0,533
-3,845
-10,573
-18,526
-26,435
-33,268
-38,273
-41,029
-41,276
-39,017
-34,616
-28,663
-21,881
-15,018
-8,777
-3,604
0,223
2,584
3,578
3,388
2,261
0,525
-1,445
-3,371
-5,063
-6,404
-7,365
-7,912
-7,992
-7,563
-6,62
-5,174
-3,244
-0,864
1,945
5,154
8,713
12,559
16,623
20,84
25,17
29,594
34,101
38,671
43,263
47,82
52,302
56,69
60,973
65,152
69,22
73,175
77,021
80,782
84,481
88,134
91,746
95,308
98,813
102,263
105,676
109,078
112,49
115,926
119,398
122,919
126,506
130,173
133,925
137,758
141,668
145,656
149,724
153,878
158,122
162,452
166,862
171,344
175,89
180,489
185,13
189,796
194,472
199,139
203,782
208,388
212,939
217,419
221,806
226,082
230,226
234,218
238,036
241,659
245,063
248,228
251,134
253,76
256,088
258,1
259,777
261,106
262,069
262,656
262,853
262,651
262,041
261,017
259,573
257,709
255,422
252,715
249,59
246,054
242,113
237,777
233,057
227,965
222,518
216,729
210,619
204,205
197,508
190,55
183,353
175,942
168,341
160,577
152,673
144,657
136,555
128,394
120,198
111,995
103,81
95,666
87,589
79,601
71,724
63,981
56,391
48,973
41,744
34,721
27,918
21,348
15,022
8,95
3,14
-2,402
-7,671
-12,664
-17,38
-21,818
-25,981
-29,871
-33,492
-36,85
-39,951
-42,804
-45,418
-47,801
-49,965
-51,92
-53,678
-55,251
-56,649
-57,887
-58,975
-59,926
-60,753
-61,466
-62,079
-62,603
-63,048
-63,425
-63,745
-64,018
-64,25
-64,452
-64,629
-64,79
-64,939
-65,082
-65,224
-65,369
-65,521
-65,681
-65,853
-66,037
-66,235
-66,446
-66,672
-66,91
-67,161
-67,425
-67,699
-67,984
-68,278
-68,581
-68,892
-69,21
-69,535
-69,866
-70,202
-70,544
-70,89
-71,242
-71,598
-71,961
-72,331
-72,707
-73,093
-73,488
-73,894
-74,312
-74,743
-75,189
-75,651
-76,13
-76,628
-77,146
-77,686
-78,248
-78,835
-79,446
-80,083
-80,745
-81,433
-82,145
-82,882
-83,64
-84,419
-85,214
-86,025
-86,846
-87,675
-88,506
-89,336
-90,158
-90,968
-91,759
-92,526
-93,261
-93,96
-94,614
-95,218
-95,766
-96,25
-96,663
-97
-97,255
-97,42
-97,491
-97,462
-97,327
-97,081
-96,72
-96,239
-95,636
-94,908
-94,051
-93,065
-91,948
-90,701
-89,325
-87,822
-86,194
-84,445
-82,58
-80,604
-78,524
-76,346
-74,079
-71,729
-69,307
-66,824
-64,288
-61,713
-59,111
-56,496
-53,885
-51,293
-48,735
-46,227
-43,785
-41,426
-39,166
-37,023
-35,012
-33,152
-31,458
-29,949
-28,639
-27,545
-26,678
-26,048
-25,661
-25,524
-25,64
-26,012
-26,639
-27,52
-28,651
-30,028
-31,646
-33,496
-35,564
-37,837
-40,296
-42,919
-45,679
-48,546
-51,488
-54,476
-57,476
-60,449
-63,361
-66,176
-68,867
-71,418
-73,805
-76,002
-77,976
-79,682
-81,088
-82,197
-83,014
-83,537
-83,816
-83,933
-84,05
-84,435
-85,341
-86,936
-89,315
-92,494
-96,323
-100,538
-104,705
-108,135
-110,071
-109,805
-106,876
-101,148
-92,882
-82,623
-71,094
-59,365
-48,845
-41,129
-37,479
-38,57
-44,313
-54,054
-66,94
-81,653
-95,976
-106,869
-111,163
-106,08
-89,539
-59,971
-16,013
43,44
117,308
201,738
292,535
385,102
476,795
568,4
658,196
741,111
809,972
852,771
858,789
823,885
746,846
634,319
501,303
363,027
237,146
137,631
66,865
21,236
-8,557
-32,581
-53,983
-71,495
-81,407
-81,426
-73,455
-61,805
-51,406
-44,872
-42,415
-43,364
-46,464
-50,654
-55,083
-58,566
-59,943
-58,765
-55,17
-49,619
-42,829
-35,48
-28,127
-21,39
-15,861
-11,808
-9,265
-8,128
-8,159
-9,142
-10,92
-13,283
-16,017
-18,958
-21,931
-24,782
-27,389
-29,604
-31,318
-32,468
-33,009
-32,932
-32,26
-31,023
-29,272
-27,077
-24,498
-21,597
-18,434
-15,063
-11,55
-7,965
-4,374
-0,842
2,585
5,882
9,03
12,023
14,867
17,573
20,16
22,655
25,078
27,444
29,769
32,066
34,351
36,641
38,954
41,306
43,71
46,18
48,724
51,354
54,074
56,891
59,808
62,827
65,95
69,182
72,527
75,987
79,566
83,264
87,081
91,016
95,066
99,226
103,488
107,845
112,287
116,803
121,38
126,006
130,665
135,341
140,018
144,678
149,302
153,872
158,369
162,771
167,06
171,215
175,215
179,042
182,675
186,094
189,281
192,217
194,884
197,264
199,341
201,099
202,523
203,6
204,317
204,664
204,63
204,209
203,394
202,181
200,567
198,553
196,138
193,327
190,123
186,535
182,569
178,236
173,549
168,518
163,161
157,491
151,528
145,288
138,791
132,057
125,108
117,966
110,653
103,193
95,611
87,929
80,174
72,37
64,542
56,715
48,914
41,162
33,485
25,904
18,442
11,121
3,961
-3,019
-9,801
-16,368
-22,705
-28,798
-34,635
-40,206
-45,501
-50,513
-55,236
-59,665
-63,796
-67,629
-71,164
-74,401
-77,344
-79,997
-82,364
-84,453
-86,272
-87,83
-89,136
-90,201
-91,038
-91,658
-92,076
-92,303
-92,355
-92,245
-91,988
-91,599
-91,091
-90,48
-89,78
-89,003
-88,165
-87,276
-86,351
-85,399
-84,434
-83,465
-82,501
-81,553
-80,627
-79,733
-78,876
-78,063
-77,298
-76,586
-75,931
-75,335
-74,801
-74,329
-73,922
-73,579
-73,3
-73,085
-72,933
-72,842
-72,811
-72,837
-72,919
-73,053
-73,237
-73,469
-73,745
-74,064
-74,421
-74,816
-75,245
-75,705
-76,193
-76,709
-77,248
-77,809
-78,389
-78,988
-79,603
-80,233
-80,877
-81,533
-82,202
-82,881
-83,57
-84,268
-84,973
-85,686
-86,403
-87,125
-87,849
-88,574
-89,299
-90,021
-90,738
-91,449
-92,149
-92,837
-93,51
-94,163
-94,794
-95,398
-95,973
-96,514
-97,018
-97,48
-97,898
-98,267
-98,583
-98,841
-99,037
-99,165
-99,222
-99,202
-99,102
-98,916
-98,641
-98,274
-97,812
-97,251
-96,59
-95,827
-94,96
-93,988
-92,911
-91,729
-90,443
-89,057
-87,571
-85,989
-84,317
-82,557
-80,717
-78,802
-76,818
-74,771
-72,671
-70,524
-68,34
-66,128
-63,898
-61,661
-59,429
-57,218
-55,041
-52,915
-50,855
-48,877
-46,998
-45,233
-43,599
-42,109
-40,777
-39,614
-38,632
-37,845
-37,265
-36,905
-36,773
-36,876
-37,222
-37,812
-38,651
-39,736
-41,064
-42,631
-44,433
-46,474
-48,761
-51,295
-54,075
-57,095
-60,339
-63,786
-67,413
-71,174
-75,028
-78,927
-82,819
-86,667
-90,424
-94,039
-97,467
-100,642
-103,497
-105,986
-108,038
-109,604
-110,679
-111,26
-111,387
-111,159
-110,602
-109,764
-108,825
-107,922
-107,234
-106,976
-107,155
-107,808
-109,206
-111,513
-114,617
-118,291
-121,943
-124,906
-127,05
-128,167
-127,715
-125,347
-121,078
-115,427
-109,737
-105,479
-103,269
-103,457
-106,527
-112,6
-121,216
-130,821
-138,503
-140,86
-134,94
-118,271
-88,385
-42,898
18,76
94,62
181,747
275,98
375,759
482,842
594,103
702,85
796,772
858,831
881,843
866,003
817,931
748,95
661,476
556,627
438,195
313,496
200,391
113,142
56,619
26,891
9,299
-7,339
-26,764
-47,53
-63,056
-70,355
-70,903
-67,688
-64,671
-63,148
-62,214
-61,115
-59,422
-57,635
-56,742
-56,905
-58,012
-60,49
-64,964
-71,979
-81,429
-91,971
-101,907
-110,363
-116,913
-121,105
-122,436
-120,22
-114,345
-105,914
-96,422
-86,821
-77,661
-69,219
-61,766
-55,899
-51,925
-49,437
-47,752
-46,344
-44,905
-43,398
-41,807
-39,932
-37,696
-35,234
-32,793
-30,661
-29,01
-27,891
-27,38
-27,437
-27,845
-28,402
-28,887
-29,047
-28,705
-27,808
-26,331
-24,353
-22,393
-20,109
-16,066
-10,629
-4,974
-1,638
-5,899
-17,245
-30,071
-38,684
-34,861
-18,076
3,734
24,544
38,082
42,921
44,312
45,258
47,381
51,336
55,412
58,915
62,199
65,356
68,659
72,311
76,33
80,709
85,378
90,243
95,172
100,132
105,214
110,445
115,81
121,277
126,758
132,212
137,676
143,222
148,97
155,055
161,533
168,372
175,517
182,704
189,456
195,237
199,387
201,238
200,365
196,665
190,26
181,884
172,8
164,146
157,048
152,634
151,658
154,482
161,207
170,922
181,857
192,631
202,108
209,19
213,188
213,56
209,772
202,328
192,669
181,794
170,409
159,122
148,167
137,922
129,027
121,437
114,466
107,683
100,781
93,594
86,275
78,795
70,897
62,609
54,187
45,827
37,751
30,065
22,682
15,589
8,818
2,34
-3,873
-9,848
-15,648
-21,285
-26,735
-31,984
-37,006
-41,779
-46,311
-50,607
-54,686
-58,566
-62,247
-65,726
-68,995
-72,036
-74,843
-77,411
-79,726
-81,787
-83,595
-85,158
-86,492
-87,62
-88,55
-89,294
-89,857
-90,246
-90,472
-90,549
-90,488
-90,302
-90,006
-89,612
-89,137
-88,596
-88,001
-87,36
-86,683
-85,975
-85,243
-84,495
-83,736
-82,973
-82,212
-81,457
-80,715
-79,99
-79,288
-78,612
-77,963
-77,345
-76,759
-76,206
-75,686
-75,201
-74,75
-74,332
-73,949
-73,6
-73,284
-73,001
-72,751
-72,533
-72,347
-72,191
-72,065
-71,969
-71,901
-71,86
-71,847
-71,86
-71,898
-71,962
-72,05
-72,163
-72,3
-72,46
-72,643
-72,849
-73,077
-73,326
-73,597
-73,89
-74,205
-74,541
-74,899
-75,28
-75,684
-76,109
-76,558
-77,028
-77,519
-78,03
-78,56
-79,108
-79,672
-80,25
-80,839
-81,438
-82,044
-82,656
-83,269
-83,881
-84,489
-85,09
-85,681
-86,259
-86,819
-87,359
-87,875
-88,363
-88,82
-89,241
-89,623
-89,962
-90,253
-90,492
-90,674
-90,796
-90,851
-90,835
-90,745
-90,577
-90,325
-89,988
-89,562
-89,045
-88,435
-87,729
-86,927
-86,029
-85,032
-83,939
-82,748
-81,461
-80,08
-78,607
-77,045
-75,396
-73,665
-71,856
-69,975
-68,026
-66,016
-63,951
-61,839
-59,687
-57,504
-55,3
-53,087
-50,876
-48,684
-46,525
-44,415
-42,37
-40,407
-38,541
-36,788
-35,161
-33,677
-32,35
-31,194
-30,224
-29,455
-28,901
-28,574
-28,485
-28,642
-29,048
-29,706
-30,613
-31,771
-33,181
-34,845
-36,765
-38,942
-41,37
-44,046
-46,964
-50,108
-53,456
-56,979
-60,635
-64,384
-68,191
-72,015
-75,819
-79,556
-83,164
-86,588
-89,768
-92,658
-95,241
-97,48
-99,326
-100,751
-101,728
-102,278
-102,495
-102,43
-102,091
-101,569
-101
-100,65
-100,954
-102,151
-104,274
-107,379
-111,426
-116,257
-121,632
-126,786
-130,504
-131,983
-130,824
-126,854
-120,345
-111,659
-101,319
-90,824
-82,334
-77,548
-77,481
-82,383
-91,793
-104,927
-120,316
-135,409
-145,675
-146,373
-134,907
-108,774
-68,182
-15,053
52,32
133,656
228,697
339,453
461,643
589,073
714,444
823,892
906,546
955,93
965,927
938,535
877,45
783,965
666,619
534,57
400,007
280,831
185,521
116,019
67,966
28,961
-7,262
-41,41
-71,335
-90,833
-97,879
-94,906
-85,339
-73,824
-63,333
-54,772
-48,782
-45,741
-46,008
-49,64
-56,082
-64,311
-73,155
-81,602
-88,75
-93,894
-96,467
-96,225
-93,367
-88,414
-82,089
-75,145
-68,329
-62,173
-57,064
-53,261
-50,769
-49,456
-49,086
-49,322
-49,817
-50,36
-50,846
-51,197
-51,386
-51,381
-51,156
-50,743
-50,185
-49,488
-48,621
-47,52
-46,142
-44,487
-42,585
-40,467
-38,148
-35,618
-32,857
-29,869
-26,675
-23,294
-19,739
-16,012
-12,12
-8,092
-3,983
0,142
4,244
8,305
12,32
16,286
20,192
24,021
27,76
31,411
34,98
38,473
41,893
45,24
48,524
51,768
55,008
58,283
61,622
65,043
68,56
72,184
75,927
79,798
83,8
87,928
92,179
96,55
101,038
105,641
110,351
115,155
120,036
124,977
129,959
134,966
139,979
144,978
149,945
154,861
159,706
164,465
169,118
173,644
178,022
182,229
186,243
190,042
193,605
196,909
199,932
202,656
205,062
207,131
208,848
210,198
211,167
211,743
211,916
211,678
211,022
209,944
208,441
206,513
204,161
201,39
198,205
194,615
190,628
186,257
181,515
176,416
170,976
165,214
159,147
152,798
146,186
139,336
132,27
125,013
117,59
110,028
102,352
94,589
86,765
78,906
71,04
63,191
55,386
47,649
40,003
32,473
25,081
17,846
10,79
3,929
-2,719
-9,139
-15,317
-21,243
-26,905
-32,295
-37,406
-42,232
-46,771
-51,02
-54,978
-58,646
-62,027
-65,123
-67,94
-70,484
-72,762
-74,781
-76,553
-78,086
-79,393
-80,484
-81,372
-82,071
-82,594
-82,955
-83,168
-83,247
-83,206
-83,06
-82,821
-82,504
-82,122
-81,686
-81,208
-80,7
-80,171
-79,632
-79,091
-78,557
-78,037
-77,537
-77,064
-76,623
-76,218
-75,853
-75,531
-75,256
-75,028
-74,851
-74,723
-74,646
-74,618
-74,64
-74,709
-74,824
-74,982
-75,181
-75,417
-75,687
-75,989
-76,318
-76,671
-77,044
-77,435
-77,84
-78,256
-78,681
-79,111
-79,546
-79,982
-80,419
-80,855
-81,289
-81,721
-82,149
-82,574
-82,995
-83,412
-83,825
-84,235
-84,643
-85,048
-85,453
-85,857
-86,264
-86,673
-87,087
-87,508
-87,936
-88,375
-88,826
-89,291
-89,772
-90,27
-90,787
-91,324
-91,882
-92,463
-93,067
-93,693
-94,341
-95,011
-95,701
-96,411
-97,139
-97,882
-98,639
-99,406
-100,181
-100,962
-101,744
-102,523
-103,296
-104,057
-104,803
-105,529
-106,228
-106,897
-107,529
-108,119
-108,662
-109,151
-109,582
-109,948
-110,244
-110,464
-110,604
-110,657
-110,618
-110,483
-110,248
-109,909
-109,462
-108,905
-108,236
-107,452
-106,551
-105,534
-104,4
-103,148
-101,781
-100,298
-98,703
-96,999
-95,19
-93,281
-91,276
-89,184
-87,01
-84,762
-82,45
-80,08
-77,664
-75,211
-72,732
-70,237
-67,74
-65,253
-62,789
-60,364
-57,994
-55,695
-53,483
-51,375
-49,389
-47,539
-45,843
-44,311
-42,957
-41,792
-40,828
-40,077
-39,551
-39,259
-39,209
-39,408
-39,86
-40,569
-41,536
-42,753
-44,214
-45,912
-47,845
-50,021
-52,443
-55,112
-58,023
-61,167
-64,529
-68,09
-71,821
-75,675
-79,599
-83,538
-87,441
-91,271
-94,984
-98,532
-101,851
-104,864
-107,496
-109,686
-111,389
-112,572
-113,215
-113,321
-112,93
-112,118
-110,988
-109,658
-108,238
-106,842
-105,606
-104,64
-104,09
-104,162
-104,998
-106,67
-109,147
-112,172
-115,379
-118,454
-120,982
-122,415
-122,346
-120,491
-116,872
-112,193
-107,465
-103,548
-101,178
-101,174
-104,05
-109,771
-117,846
-125,609
-128,488
-123,691
-109,349
-85,213
-54,011
-13,422
42,449
118,055
217,487
335,136
457,707
573,157
672,245
754,465
821,991
874,388
906,42
904,728
861,61
774,727
647,189
497,066
341,514
197,547
84,792
6,655
-40,929
-64,592
-78,338
-86,654
-85,672
-76,128
-59,378
-40,855
-31,876
-35,202
-46,009
-59,488
-68,695
-71,501
-71,628
-70,837
-70,281
-70,308
-69,459
-67,296
-64,032
-60,01
-56,02
-52,623
-50,132
-48,531
-47,363
-46,454
-45,976
-46,016
-46,666
-47,902
-49,501
-51,391
-53,67
-56,236
-58,824
-61,181
-63,029
-64,217
-64,76
-64,645
-63,849
-62,395
-60,336
-57,747
-54,731
-51,361
-47,678
-43,73
-39,566
-35,25
-30,864
-26,479
-22,165
-17,971
-13,925
-10,044
-6,335
-2,793
0,587
3,822
6,934
9,939
12,851
15,681
18,437
21,135
23,793
26,432
29,071
31,727
34,412
37,14
39,923
42,77
45,691
48,692
51,779
54,957
58,235
61,618
65,115
68,73
72,466
76,325
80,307
84,411
88,634
92,97
97,411
101,95
106,574
111,274
116,036
120,845
125,687
130,543
135,396
140,227
145,016
149,743
154,386
158,924
163,336
167,599
171,691
175,592
179,28
182,735
185,936
188,865
191,502
193,832
195,837
197,502
198,816
199,765
200,34
200,532
200,335
199,745
198,759
197,376
195,597
193,424
190,862
187,917
184,597
180,911
176,87
172,487
167,775
162,751
157,43
151,832
145,973
139,875
133,558
127,042
120,35
113,505
106,529
99,445
92,278
85,051
77,787
70,509
63,24
56,002
48,817
41,706
34,687
27,781
21,006
14,379
7,916
1,632
-4,459
-10,344
-16,012
-21,452
-26,657
-31,617
-36,328
-40,783
-44,98
-48,915
-52,587
-55,996
-59,142
-62,028
-64,657
-67,033
-69,162
-71,05
-72,706
-74,137
-75,352
-76,361
-77,174
-77,801
-78,254
-78,543
-78,68
-78,676
-78,543
-78,292
-77,935
-77,483
-76,947
-76,337
-75,665
-74,939
-74,17
-73,367
-72,54
-71,696
-70,843
-69,991
-69,145
-68,313
-67,501
-66,714
-65,958
-65,235
-64,551
-63,906
-63,304
-62,746
-62,233
-61,764
-61,341
-60,963
-60,628
-60,335
-60,083
-59,87
-59,693
-59,552
-59,443
-59,365
-59,315
-59,292
-59,294
-59,319
-59,364
-59,427
-59,508
-59,603
-59,71
-59,828
-59,954
-60,087
-60,224
-60,366
-60,509
-60,654
-60,799
-60,945
-61,09
-61,236
-61,382
-61,529
-61,679
-61,832
-61,989
-62,153
-62,324
-62,504
-62,695
-62,896
-63,111
-63,338
-63,578
-63,833
-64,101
-64,383
-64,678
-64,987
-65,308
-65,642
-65,988
-66,345
-66,711
-67,087
-67,471
-67,862
-68,257
-68,656
-69,057
-69,456
-69,853
-70,242
-70,622
-70,989
-71,339
-71,668
-71,971
-72,245
-72,484
-72,685
-72,844
-72,955
-73,016
-73,022
-72,97
-72,857
-72,678
-72,432
-72,116
-71,727
-71,263
-70,722
-70,102
-69,402
-68,621
-67,756
-66,808
-65,776
-64,659
-63,459
-62,175
-60,81
-59,366
-57,843
-56,248
-54,582
-52,851
-51,062
-49,218
-47,328
-45,397
-43,436
-41,45
-39,45
-37,444
-35,443
-33,459
-31,503
-29,588
-27,727
-25,933
-24,221
-22,602
-21,091
-19,699
-18,437
-17,316
-16,346
-15,539
-14,906
-14,46
-14,209
-14,164
-14,334
-14,724
-15,339
-16,179
-17,242
-18,525
-20,027
-21,753
-23,706
-25,887
-28,293
-30,919
-33,756
-36,783
-39,973
-43,284
-46,673
-50,095
-53,508
-56,877
-60,165
-63,332
-66,334
-69,114
-71,62
-73,805
-75,623
-77,038
-78,031
-78,613
-78,825
-78,75
-78,464
-78,036
-77,542
-77,058
-76,683
-76,528
-76,703
-77,3
-78,436
-80,276
-82,905
-86,31
-90,31
-94,484
-98,354
-101,479
-103,35
-103,416
-101,365
-97,134
-91,107
-84,307
-77,799
-72,472
-69,226
-68,688
-70,952
-75,588
-81,116
-84,876
-83,987
-75,519
-56,457
-24,481
21,903
83,502
159,366
246,643
341,84
439,36
531,583
613,009
678,85
727,093
761,219
779,745
777,313
746,87
676,663
566,878
430,685
287,138
162,267
70,805
12,7
-19,436
-40,942
-61,318
-81,247
-98,259
-106,285
-103,118
-91,526
-75,481
-59,694
-46,691
-36,884
-30,199
-26,402
-25,542
-27,492
-31,381
-36,076
-40,689
-44,453
-47,117
-48,639
-48,663
-47,121
-44,363
-40,855
-37,232
-34,191
-32,008
-30,759
-30,644
-31,647
-33,634
-36,465
-39,76
-43,071
-46,133
-48,746
-50,771
-52,195
-52,989
-53,12
-52,642
-51,625
-50,127
-48,219
-45,938
-43,305
-40,361
-37,157
-33,755
-30,232
-26,653
-23,078
-19,55
-16,095
-12,731
-9,472
-6,317
-3,263
-0,297
2,6
5,437
8,223
10,967
13,678
16,371
19,065
21,775
24,517
27,302
30,141
33,042
36,015
39,065
42,198
45,415
48,719
52,114
55,603
59,191
62,882
66,676
70,575
74,578
78,684
82,892
87,196
91,59
96,066
100,616
105,229
109,896
114,603
119,337
124,083
128,827
133,552
138,241
142,876
147,439
151,91
156,27
160,501
164,582
168,494
172,218
175,734
179,026
182,074
184,862
187,373
189,592
191,503
193,094
194,351
195,265
195,824
196,021
195,85
195,305
194,383
193,083
191,404
189,348
186,918
184,119
180,958
177,441
173,579
169,382
164,862
160,034
154,911
149,51
143,848
137,943
131,814
125,48
118,963
112,283
105,461
98,519
91,48
84,366
77,198
70
62,792
55,597
48,435
41,328
34,295
27,356
20,53
13,834
7,285
0,898
-5,311
-11,328
-17,142
-22,74
-28,113
-33,251
-38,148
-42,796
-47,191
-51,328
-55,207
-58,824
-62,181
-65,278
-68,117
-70,703
-73,038
-75,13
-76,983
-78,604
-80,003
-81,186
-82,163
-82,945
-83,54
-83,96
-84,216
-84,319
-84,279
-84,11
-83,821
-83,425
-82,933
-82,356
-81,706
-80,994
-80,23
-79,424
-78,586
-77,726
-76,852
-75,973
-75,096
-74,229
-73,378
-72,551
-71,751
-70,985
-70,257
-69,571
-68,931
-68,339
-67,797
-67,309
-66,874
-66,494
-66,17
-65,9
-65,686
-65,526
-65,419
-65,364
-65,358
-65,402
-65,491
-65,624
-65,799
-66,013
-66,263
-66,547
-66,862
-67,207
-67,578
-67,974
-68,391
-68,829
-69,285
-69,756
-70,241
-70,739
-71,246
-71,761
-72,283
-72,811
-73,342
-73,877
-74,414
-74,953
-75,492
-76,032
-76,572
-77,111
-77,651
-78,19
-78,729
-79,269
-79,809
-80,35
-80,893
-81,437
-81,983
-82,53
-83,079
-83,63
-84,18
-84,73
-85,28
-85,827
-86,372
-86,912
-87,448
-87,977
-88,499
-89,011
-89,511
-89,998
-90,47
-90,923
-91,355
-91,764
-92,147
-92,5
-92,82
-93,105
-93,35
-93,551
-93,705
-93,808
-93,854
-93,84
-93,762
-93,615
-93,396
-93,1
-92,725
-92,267
-91,724
-91,094
-90,373
-89,561
-88,655
-87,654
-86,557
-85,364
-84,075
-82,69
-81,212
-79,641
-77,982
-76,235
-74,406
-72,499
-70,518
-68,47
-66,36
-64,196
-61,986
-59,738
-57,463
-55,172
-52,877
-50,592
-48,333
-46,113
-43,949
-41,856
-39,851
-37,949
-36,164
-34,508
-32,995
-31,639
-30,452
-29,448
-28,641
-28,041
-27,661
-27,508
-27,591
-27,916
-28,483
-29,291
-30,341
-31,632
-33,173
-34,971
-37,028
-39,344
-41,915
-44,728
-47,766
-51,004
-54,4
-57,909
-61,482
-65,068
-68,627
-72,117
-75,488
-78,689
-81,649
-84,3
-86,583
-88,445
-89,849
-90,783
-91,246
-91,267
-90,918
-90,271
-89,419
-88,471
-87,522
-86,68
-86,075
-85,808
-86,036
-86,957
-88,686
-91,273
-94,638
-98,482
-102,473
-106,276
-109,393
-111,271
-111,475
-109,686
-106,02
-101,16
-95,825
-90,76
-86,795
-84,572
-84,536
-86,835
-90,722
-94,356
-95,497
-91,477
-79,388
-56,745
-21,263
28,992
94,781
175,31
268,561
370,197
474,06
574,203
664,907
743,255
808,545
859,403
892,743
900,401
872,874
803,433
691,672
549,997
398,204
258,601
149,724
76,592
33,606
8,347
-11,603
-31,316
-49,75
-62,205
-66,039
-62,861
-56,618
-52,212
-51,992
-55,74
-62,489
-70,72
-79,117
-86,715
-92,389
-95,166
-94,776
-91,477
-85,816
-78,544
-70,413
-62,12
-54,36
-47,723
-42,471
-38,624
-36,094
-34,705
-34,297
-34,752
-35,922
-37,659
-39,88
-42,492
-45,382
-48,426
-51,45
-54,252
-56,667
-58,578
-59,911
-60,645
-60,784
-60,341
-59,358
-57,878
-55,941
-53,573
-50,781
-47,58
-44,006
-40,121
-36,008
-31,768
-27,502
-23,282
-19,165
-15,185
-11,355
-7,678
-4,145
-0,737
2,563
5,758
8,842
11,806
14,65
17,385
20,034
22,63
25,211
27,811
30,464
33,196
36,026
38,967
42,027
45,208
48,51
51,938
55,498
59,2
63,051
67,055
71,214
75,526
79,985
84,582
89,306
94,146
99,086
104,116
109,219
114,384
119,595
124,836
130,089
135,335
140,552
145,717
150,808
155,798
160,664
165,381
169,923
174,266
178,387
182,263
185,87
189,188
192,195
194,872
197,2
199,162
200,743
201,928
202,705
203,065
202,997
202,497
201,559
200,183
198,368
196,117
193,434
190,325
186,799
182,866
178,538
173,83
168,757
163,338
157,591
151,537
145,199
138,6
131,763
124,713
117,477
110,08
102,548
94,908
87,186
79,408
71,602
63,792
56,004
48,263
40,591
33,014
25,551
18,224
11,053
4,055
-2,751
-9,35
-15,729
-21,874
-27,774
-33,42
-38,804
-43,92
-48,763
-53,329
-57,617
-61,627
-65,36
-68,819
-72,007
-74,929
-77,592
-80,002
-82,168
-84,098
-85,803
-87,291
-88,574
-89,663
-90,568
-91,302
-91,875
-92,299
-92,586
-92,747
-92,794
-92,737
-92,588
-92,356
-92,052
-91,686
-91,267
-90,803
-90,302
-89,773
-89,221
-88,655
-88,078
-87,498
-86,917
-86,341
-85,773
-85,216
-84,672
-84,143
-83,631
-83,137
-82,662
-82,206
-81,77
-81,353
-80,957
-80,58
-80,222
-79,883
-79,562
-79,259
-78,973
-78,704
-78,451
-78,214
-77,992
-77,786
-77,595
-77,419
-77,256
-77,109
-76,975
-76,856
-76,75
-76,659
-76,583
-76,521
-76,475
-76,443
-76,428
-76,43
-76,448
-76,483
-76,537
-76,608
-76,698
-76,807
-76,936
-77,085
-77,255
-77,445
-77,657
-77,89
-78,146
-78,423
-78,721
-79,042
-79,384
-79,746
-80,13
-80,533
-80,956
-81,398
-81,858
-82,335
-82,828
-83,336
-83,859
-84,394
-84,941
-85,497
-86,063
-86,636
-87,214
-87,797
-88,382
-88,968
-89,554
-90,136
-90,714
-91,284
-91,844
-92,391
-92,922
-93,434
-93,923
-94,387
-94,822
-95,224
-95,59
-95,916
-96,199
-96,435
-96,621
-96,753
-96,827
-96,841
-96,79
-96,673
-96,485
-96,224
-95,887
-95,471
-94,973
-94,393
-93,726
-92,971
-92,127
-91,19
-90,161
-89,038
-87,82
-86,509
-85,103
-83,605
-82,018
-80,342
-78,584
-76,745
-74,83
-72,844
-70,793
-68,683
-66,521
-64,315
-62,072
-59,801
-57,513
-55,216
-52,924
-50,647
-48,4
-46,193
-44,04
-41,958
-39,961
-38,069
-36,297
-34,659
-33,169
-31,843
-30,694
-29,736
-28,981
-28,438
-28,117
-28,026
-28,174
-28,572
-29,226
-30,132
-31,283
-32,67
-34,285
-36,134
-38,217
-40,53
-43,07
-45,829
-48,797
-51,968
-55,323
-58,827
-62,435
-66,089
-69,74
-73,357
-76,92
-80,423
-83,833
-87,079
-90,086
-92,772
-95,069
-96,964
-98,427
-99,389
-99,88
-99,991
-99,906
-99,967
-100,375
-101,129
-102,238
-103,669
-105,307
-107,152
-109,022
-110,355
-110,903
-110,645
-109,514
-107,736
-105,53
-102,753
-99,509
-96,398
-93,675
-91,628
-90,809
-91,288
-93,171
-96,911
-102,511
-109,371
-116,91
-123,985
-128,584
-128,705
-122,055
-105,999
-78,261
-37,136
18,77
90,169
175,123
269,655
369,779
470,403
569,212
667,149
760,252
842,024
902,71
928,318
913,253
859,447
771,973
660,396
532,654
395,033
258,882
139,316
47,725
-9,977
-38,085
-50,937
-59,199
-67,834
-76,26
-78,319
-72,199
-60,514
-47,018
-36,577
-31,158
-30,365
-33,993
-41,18
-50,713
-61,475
-71,882
-80,494
-86,811
-90,665
-91,799
-90,32
-86,65
-81,35
-75,359
-69,63
-64,564
-60,356
-57,214
-55,132
-54,034
-53,79
-54,018
-54,299
-54,435
-54,309
-53,832
-52,991
-51,728
-50,017
-47,967
-45,701
-43,317
-40,9
-38,482
-36,081
-33,758
-31,571
-29,548
-27,705
-26,012
-24,421
-22,92
-21,502
-20,16
-18,867
-17,552
-16,148
-14,607
-12,893
-10,983
-8,858
-6,485
-3,842
-0,941
2,193
5,518
8,973
12,529
16,163
19,853
23,58
27,314
31,027
34,715
38,381
42,031
45,668
49,292
52,905
56,528
60,185
63,905
67,722
71,656
75,72
79,925
84,28
88,786
93,443
98,24
103,162
108,192
113,316
118,52
123,789
129,103
134,437
139,77
145,076
150,332
155,517
160,606
165,571
170,388
175,033
179,485
183,728
187,74
191,488
194,955
198,137
201,024
203,614
205,887
207,801
209,332
210,495
211,26
211,557
211,331
210,526
209,127
207,208
204,798
201,819
198,345
194,68
190,913
186,959
182,868
178,363
173,956
171,513
170,82
170,132
166,828
155,707
136,665
115,082
96,162
87,311
89,634
96,055
101,069
98,919
88,134
74,018
59,991
48,215
39,575
31,963
24,319
16,765
9,231
2,047
-4,656
-11,156
-17,537
-23,734
-29,741
-35,562
-41,177
-46,568
-51,701
-56,524
-61,015
-65,196
-69,076
-72,651
-75,926
-78,902
-81,585
-83,988
-86,121
-87,989
-89,599
-90,963
-92,09
-92,992
-93,683
-94,174
-94,477
-94,607
-94,576
-94,397
-94,084
-93,649
-93,104
-92,463
-91,737
-90,938
-90,077
-89,165
-88,211
-87,226
-86,219
-85,197
-84,17
-83,145
-82,129
-81,128
-80,147
-79,193
-78,27
-77,381
-76,53
-75,72
-74,952
-74,23
-73,552
-72,922
-72,337
-71,799
-71,307
-70,86
-70,457
-70,096
-69,776
-69,496
-69,253
-69,046
-68,873
-68,731
-68,619
-68,535
-68,476
-68,441
-68,427
-68,432
-68,454
-68,49
-68,539
-68,598
-68,664
-68,736
-68,812
-68,889
-68,966
-69,041
-69,113
-69,18
-69,242
-69,297
-69,344
-69,383
-69,414
-69,435
-69,446
-69,448
-69,441
-69,424
-69,399
-69,365
-69,322
-69,272
-69,215
-69,152
-69,083
-69,009
-68,932
-68,852
-68,771
-68,691
-68,613
-68,538
-68,469
-68,407
-68,353
-68,31
-68,279
-68,261
-68,258
-68,271
-68,301
-68,349
-68,417
-68,505
-68,614
-68,744
-68,895
-69,068
-69,262
-69,476
-69,71
-69,963
-70,233
-70,519
-70,819
-71,131
-71,453
-71,782
-72,116
-72,449
-72,78
-73,104
-73,417
-73,714
-73,991
-74,244
-74,468
-74,658
-74,81
-74,919
-74,98
-74,987
-74,935
-74,819
-74,635
-74,376
-74,04
-73,62
-73,114
-72,517
-71,826
-71,038
-70,151
-69,161
-68,068
-66,87
-65,565
-64,156
-62,641
-61,024
-59,306
-57,491
-55,583
-53,587
-51,51
-49,356
-47,134
-44,85
-42,514
-40,134
-37,721
-35,285
-32,838
-30,394
-27,969
-25,578
-23,237
-20,963
-18,772
-16,683
-14,711
-12,872
-11,179
-9,648
-8,291
-7,122
-6,158
-5,411
-4,893
-4,615
-4,585
-4,813
-5,301
-6,048
-7,052
-8,308
-9,815
-11,578
-13,6
-15,882
-18,42
-21,208
-24,235
-27,483
-30,925
-34,52
-38,221
-41,98
-45,754
-49,505
-53,196
-56,781
-60,205
-63,404
-66,315
-68,888
-71,074
-72,826
-74,119
-74,952
-75,362
-75,422
-75,203
-74,77
-74,189
-73,545
-72,958
-72,516
-72,3
-72,431
-73,05
-74,295
-76,259
-78,838
-81,701
-84,594
-87,256
-89,067
-89,461
-88,046
-84,304
-79,327
-74,726
-70,304
-66,74
-62,876
-57,008
-52,609
-51,568
-55,836
-67,277
-79,41
-85,917
-81,338
-59,138
-19,151
37,879
111,785
199,804
298,903
404,011
508,446
605,383
690,917
764,7
825,158
870,857
894,939
884,725
831,658
730,275
587,431
423,734
262,658
130,014
39,508
-10,751
-30,786
-38,964
-47,164
-57,543
-67,931
-71,331
-65,146
-52,328
-36,875
-23,293
-13,717
-8,022
-5,805
-6,624
-10,008
-15,271
-21,376
-27,553
-33,24
-37,854
-41,099
-42,647
-42,319
-40,401
-37,368
-33,651
-29,766
-26,312
-23,646
-22,071
-21,764
-22,608
-24,425
-27,013
-30,026
-33,069
-35,852
-38,13
-39,763
-40,744
-41,06
-40,713
-39,756
-38,249
-36,254
-33,835
-31,034
-27,879
-24,416
-20,7
-16,802
-12,8
-8,769
-4,773
-0,862
2,934
6,591
10,097
13,451
16,656
19,721
22,663
25,492
28,216
30,847
33,395
35,877
38,312
40,719
43,116
45,518
47,938
50,389
52,882
55,429
58,037
60,715
63,469
66,308
69,239
72,273
75,416
78,676
82,058
85,567
89,207
92,978
96,881
100,914
105,071
109,347
113,734
118,222
122,802
127,46
132,181
136,952
141,754
146,571
151,382
156,169
160,909
165,581
170,162
174,63
178,963
183,135
187,126
190,911
194,47
197,78
200,819
203,568
206,007
208,116
209,88
211,28
212,303
212,935
213,165
212,983
212,382
211,358
209,905
208,024
205,715
202,98
199,825
196,256
192,281
187,912
183,161
178,043
172,572
166,768
160,648
154,235
147,548
140,611
133,447
126,081
118,536
110,84
103,017
95,095
87,098
79,054
70,989
62,93
54,901
46,929
39,038
31,252
23,593
16,083
8,743
1,592
-5,352
-12,073
-18,554
-24,783
-30,748
-36,437
-41,842
-46,957
-51,775
-56,292
-60,507
-64,417
-68,025
-71,331
-74,338
-77,052
-79,477
-81,619
-83,487
-85,089
-86,434
-87,533
-88,397
-89,037
-89,466
-89,697
-89,742
-89,616
-89,332
-88,903
-88,343
-87,667
-86,887
-86,017
-85,07
-84,059
-82,996
-81,892
-80,76
-79,608
-78,449
-77,29
-76,14
-75,007
-73,899
-72,822
-71,783
-70,787
-69,839
-68,943
-68,104
-67,325
-66,608
-65,955
-65,368
-64,847
-64,393
-64,006
-63,684
-63,428
-63,235
-63,104
-63,032
-63,018
-63,058
-63,149
-63,29
-63,475
-63,702
-63,968
-64,27
-64,603
-64,966
-65,354
-65,766
-66,197
-66,646
-67,109
-67,583
-68,066
-68,555
-69,047
-69,54
-70,032
-70,519
-71,002
-71,477
-71,944
-72,401
-72,847
-73,282
-73,705
-74,114
-74,511
-74,895
-75,265
-75,624
-75,97
-76,304
-76,628
-76,943
-77,248
-77,545
-77,834
-78,118
-78,395
-78,668
-78,938
-79,204
-79,469
-79,734
-80
-80,268
-80,541
-80,818
-81,102
-81,393
-81,693
-82,003
-82,324
-82,656
-83
-83,357
-83,726
-84,109
-84,506
-84,916
-85,34
-85,776
-86,224
-86,683
-87,153
-87,633
-88,12
-88,614
-89,113
-89,615
-90,12
-90,623
-91,124
-91,62
-92,107
-92,583
-93,044
-93,488
-93,91
-94,307
-94,674
-95,008
-95,305
-95,56
-95,769
-95,928
-96,033
-96,079
-96,062
-95,98
-95,827
-95,6
-95,296
-94,913
-94,446
-93,894
-93,254
-92,525
-91,705
-90,793
-89,79
-88,695
-87,51
-86,237
-84,877
-83,435
-81,914
-80,317
-78,652
-76,924
-75,14
-73,307
-71,435
-69,534
-67,614
-65,689
-63,774
-61,881
-60,023
-58,217
-56,479
-54,827
-53,278
-51,843
-50,538
-49,375
-48,371
-47,541
-46,898
-46,454
-46,214
-46,189
-46,387
-46,818
-47,489
-48,395
-49,533
-50,893
-52,474
-54,284
-56,328
-58,602
-61,1
-63,811
-66,723
-69,827
-73,105
-76,518
-80,025
-83,572
-87,108
-90,603
-94,028
-97,361
-100,574
-103,602
-106,371
-108,809
-110,858
-112,492
-113,715
-114,509
-114,835
-114,732
-114,336
-113,906
-113,724
-113,929
-114,487
-115,308
-116,476
-118,132
-120,214
-122,344
-123,909
-124,392
-123,746
-122,243
-119,859
-116,356
-111,706
-106,271
-101,081
-97,442
-95,957
-96,664
-99,722
-105,268
-113,322
-123,468
-134,003
-142,281
-146,05
-143,244
-131,565
-109,095
-73,772
-23,722
39,994
115,132
200,821
293,969
393,128
496,259
592,915
675,297
736,661
770,686
783,657
779,091
754,07
707,428
630,529
520,179
389,165
252,949
129,702
35,167
-31,821
-78,641
-110,351
-133,905
-147,275
-144,317
-128,496
-103,36
-75,71
-55,759
-43,521
-37,564
-36,883
-37,67
-41,289
-48,984
-59,4
-71,737
-83,353
-92,055
-97,297
-98,748
-96,795
-92,225
-85,809
-78,654
-71,881
-66,161
-61,914
-59,303
-58,255
-58,644
-60,224
-62,59
-65,283
-67,985
-70,486
-72,659
-74,444
-75,751
-76,511
-76,719
-76,401
-75,594
-74,32
-72,594
-70,429
-67,873
-64,983
-61,823
-58,456
-54,935
-51,311
-47,642
-43,983
-40,389
-36,897
-33,53
-30,303
-27,218
-24,276
-21,472
-18,792
-16,216
-13,724
-11,298
-8,918
-6,569
-4,236
-1,898
0,46
2,857
5,307
7,825
10,422
13,109
15,898
18,795
21,809
24,945
28,208
31,603
35,136
38,81
42,628
46,591
50,698
54,949
59,338
63,86
68,507
73,269
78,134
83,091
88,123
93,215
98,349
103,508
108,669
113,814
118,919
123,963
128,923
133,774
138,493
143,057
147,443
151,626
155,584
159,295
162,737
165,889
168,73
171,242
173,407
175,208
176,63
177,66
178,287
178,5
178,291
177,654
176,586
175,085
173,15
170,784
167,991
164,777
161,151
157,123
152,705
147,911
142,757
137,26
131,439
125,313
118,904
112,234
105,325
98,202
90,889
83,411
75,795
68,065
60,249
52,372
44,46
36,54
28,636
20,774
12,977
5,27
-2,327
-9,79
-17,099
-24,234
-31,178
-37,913
-44,423
-50,696
-56,717
-62,477
-67,967
-73,178
-78,105
-82,743
-87,089
-91,141
-94,899
-98,365
-101,539
-104,426
-107,03
-109,358
-111,415
-113,211
-114,752
-116,05
-117,112
-117,951
-118,577
-119,002
-119,236
-119,292
-119,183
-118,92
-118,517
-117,986
-117,339
-116,589
-115,749
-114,829
-113,841
-112,797
-111,705
-110,577
-109,422
-108,248
-107,063
-105,877
-104,695
-103,525
-102,374
-101,246
-100,147
-99,082
-98,055
-97,07
-96,131
-95,241
-94,402
-93,619
-92,893
-92,227
-91,623
-91,082
-90,607
-90,198
-89,857
-89,584
-89,38
-89,245
-89,179
-89,183
-89,257
-89,402
-89,616
-89,9
-90,255
-90,679
-91,173
-91,736
-92,368
-93,068
-93,836
-94,672
-95,574
-96,542
-97,575
-98,673
-99,832
-101,052
-102,33
-103,663
-105,05
-106,487
-107,97
-109,496
-111,062
-112,663
-114,295
-115,954
-117,636
-119,334
-121,046
-122,765
-124,486
-126,204
-127,915
-129,612
-131,291
-132,945
-134,571
-136,163
-137,716
-139,224
-140,683
-142,087
-143,432
-144,713
-145,926
-147,067
-148,133
-149,119
-150,023
-150,844
-151,578
-152,224
-152,781
-153,248
-153,625
-153,913
-154,111
-154,22
-154,243
-154,18
-154,035
-153,809
-153,504
-153,125
-152,672
-152,15
-151,562
-150,909
-150,196
-149,425
-148,598
-147,72
-146,791
-145,815
-144,794
-143,73
-142,624
-141,479
-140,296
-139,075
-137,817
-136,523
-135,193
-133,826
-132,422
-130,979
-129,496
-127,971
-126,402
-124,785
-123,118
-121,398
-119,621
-117,784
-115,883
-113,914
-111,874
-109,759
-107,567
-105,293
-102,937
-100,496
-97,969
-95,356
-92,657
-89,872
-87,005
-84,056
-81,03
-77,931
-74,762
-71,531
-68,243
-64,906
-61,528
-58,118
-54,689
-51,253
-47,824
-44,416
-41,046
-37,73
-34,485
-31,327
-28,272
-25,334
-22,529
-19,872
-17,381
-15,071
-12,957
-11,052
-9,37
-7,92
-6,714
-5,756
-5,048
-4,59
-4,379
-4,419
-4,721
-5,291
-6,132
-7,247
-8,629
-10,269
-12,156
-14,267
-16,562
-19
-21,533
-24,114
-26,707
-29,268
-31,747
-34,087
-36,206
-38,027
-39,487
-40,525
-41,1
-41,184
-40,759
-39,836
-38,468
-36,718
-34,683
-32,466
-30,157
-27,883
-25,758
-23,917
-22,581
-21,913
-22,004
-22,851
-24,232
-25,842
-27,415
-28,59
-28,885
-27,91
-25,328
-21,138
-16,02
-10,785
-6,285
-3,302
-2,314
-3,884
-8,321
-14,961
-22,187
-26,729
-24,925
-14,782
6,185
38,312
81,384
138,783
210,054
296,503
400,069
514,982
638,211
760,722
866,999
948,384
994,821
1004,326
986,236
945,166
886,343
812,138
717,23
605,179
485,911
369,695
271,572
197,711
143,903
106,089
77,636
55,325
42,322
39,682
46,317
59,437
73,686
85,165
92,475
95,398
94,26
89,158
80,684
70,011
58,74
48,798
41,107
35,725
32,755
32,275
34,04
37,619
42,175
46,515
50,035
52,621
54,175
54,705
54,238
52,791
50,629
48,207
45,817
43,619
41,732
40,198
39,101
38,566
38,609
39,169
40,166
41,492
43,074
44,878
46,862
48,992
51,249
53,633
56,143
58,775
61,513
64,329
67,191
70,067
72,946
75,839
78,777
81,822
85,022
88,416
92,03
95,871
99,924
104,159
108,545
113,055
117,674
122,398
127,23
132,179
137,25
142,451
147,777
153,214
158,747
164,365
170,063
175,846
181,727
187,731
193,876
200,183
206,664
213,322
220,158
227,164
234,329
241,634
249,065
256,606
264,244
271,964
279,749
287,578
295,428
303,272
311,082
318,83
326,488
334,026
341,418
348,637
355,66
362,463
369,024
375,32
381,328
387,026
392,391
397,403
402,04
406,285
410,119
413,528
416,497
419,016
421,075
422,666
423,786
424,43
424,597
424,289
423,509
422,262
420,556
418,399
415,803
412,78
409,347
405,518
401,314
396,751
391,853
386,64
381,134
375,36
369,341
363,102
356,668
350,063
343,313
336,445
329,484
322,455
315,384
308,294
301,211
294,157
287,154
280,224
273,387
266,662
260,067
253,617
247,33
241,218
235,295
229,57
224,054
218,754
213,678
208,829
204,211
199,828
195,679
191,765
188,084
184,634
181,412
178,414
175,634
173,068
170,708
168,547
166,579
164,796
163,188
161,749
160,469
159,339
158,35
157,495
156,763
156,147
155,638
155,228
154,909
154,673
154,515
154,427
154,403
154,438
154,527
154,665
154,848
155,072
155,334
155,632
155,961
156,321
156,709
157,124
157,562
158,024
158,508
159,011
159,534
160,075
160,632
161,205
161,793
162,394
163,007
163,631
164,265
164,907
165,555
166,209
166,866
167,523
168,179
168,831
169,477
170,113
170,736
171,344
171,933
172,501
173,043
173,557
174,039
174,486
174,896
175,264
175,588
175,864
176,089
176,26
176,375
176,43
176,422
176,349
176,208
175,996
175,71
175,348
174,906
174,383
173,776
173,082
172,299
171,426
170,46
169,4
168,242
166,987
165,631
164,173
162,611
160,941
159,161
157,269
155,261
153,135
150,888
148,518
146,021
143,397
140,642
137,754
134,732
131,573
128,277
124,842
121,267
117,551
113,694
109,696
105,557
101,278
96,861
92,305
87,613
82,786
77,827
72,737
67,519
62,178
56,718
51,144
45,462
39,681
33,808
27,855
21,831
15,744
9,607
3,428
-2,781
-9,011
-15,254
-21,5
-27,739
-33,96
-40,152
-46,303
-52,401
-58,433
-64,389
-70,255
-76,019
-81,669
-87,198
-92,596
-97,856
-102,965
-107,91
-112,68
-117,273
-121,688
-125,927
-129,999
-133,912
-137,682
-141,337
-144,902
-148,402
-151,86
-155,283
-158,678
-162,055
-165,425
-168,8
-172,185
-175,566
-178,929
-182,263
-185,55
-188,779
-191,927
-194,945
-197,796
-200,455
-202,905
-205,156
-207,236
-209,164
-210,975
-212,713
-214,435
-216,228
-218,195
-220,415
-222,969
-225,931
-229,365
-233,376
-238,046
-243,434
-249,598
-256,553
-264,291
-272,804
-282,062
-292,001
-302,543
-313,562
-324,888
-336,379
-347,885
-359,273
-370,43
-381,225
-391,546
-401,287
-410,316
-418,52
-425,801
-432,076
-437,323
-441,533
-444,674
-446,831
-448,173
-448,954
-449,573
-450,268
-451,079
-452,067
-453,222
-454,504
-455,989
-457,43
-458,199
-457,957
-456,515
-453,832
-450,226
-445,801
-440,321
-434,065
-427,76
-422,071
-417,921
-415,833
-415,714
-417,758
-422,243
-428,883
-436,89
-444,82
-450,267
-450,938
-444,749
-429,266
-402,242
-361,737
-306,515
-236,522
-153,025
-58,207
44,869
151,322
254,817
348,87
428,369
491,939
540,581
574,635
591,672
583,082
539,939
457,058
334,368
185,489
28,652
-117,663
-233,936
-315,765
-367,284
-395,616
-415,34
-431,717
-443,527
-452,295
-454,937
-453,436
-454,151
-456,257
-459,885
-463,778
-463,757
-461,875
-459,857
-457,828
-457,517
-457,88
-457,751
-457,677
-457,535
-457,136
-456,708
-456,023
-454,636
-452,574
-449,852
-446,364
-442,385
-438,376
-434,54
-431,041
-428,063
-425,533
-423,319
-421,304
-419,127
-416,323
-412,593
-407,72
-401,583
-394,211
-385,649
-375,943
-365,233
-353,696
-341,487
-328,759
-315,627
-302,163
-288,484
